%time,field.header.seq,field.header.stamp,field.header.frame_id,field.data.data
1692741251698934793,7938,1692741251698934793,,6.181946592536761
1692741251703857898,7939,1692741251703857898,,4.249660308923703
1692741251708966255,7940,1692741251708966255,,3.3409296512879374
1692741251713768720,7941,1692741251713768720,,4.665762248748162
1692741251718882799,7942,1692741251718882799,,3.6357758146569883
1692741251723918437,7943,1692741251723918437,,5.008260389481031
1692741251728618144,7944,1692741251728618144,,4.386552167439302
1692741251733992099,7945,1692741251733992099,,3.898929363741146
1692741251739240407,7946,1692741251739240407,,5.096921560800647
1692741251743562936,7947,1692741251743562936,,4.100109581411483
1692741251748792171,7948,1692741251748792171,,4.3358997747052745
1692741251753641843,7949,1692741251753641843,,5.313572274961138
1692741251758816719,7950,1692741251758816719,,5.114955025100258
1692741251763656854,7951,1692741251763656854,,5.735128216204204
1692741251768792390,7952,1692741251768792390,,5.029935163284463
1692741251773676395,7953,1692741251773676395,,4.957796737577805
1692741251778893470,7954,1692741251778893470,,4.836044910262653
1692741251783744573,7955,1692741251783744573,,4.714294375460672
1692741251788885831,7956,1692741251788885831,,4.015207699443688
1692741251793853759,7957,1692741251793853759,,4.407597150376821
1692741251798645496,7958,1692741251798645496,,3.1119561228188535
1692741251803785562,7959,1692741251803785562,,3.8024601772636952
1692741251808880567,7960,1692741251808880567,,4.965361381907936
1692741251813689708,7961,1692741251813689708,,6.293260573709258
1692741251818947553,7962,1692741251818947553,,4.8187691933389685
1692741251824661731,7963,1692741251824661731,,4.715038933795868
1692741251828958988,7964,1692741251828958988,,3.869562810632553
1692741251833834171,7965,1692741251833834171,,4.200790831848994
1692741251838976144,7966,1692741251838976144,,3.796941530393871
1692741251843841314,7967,1692741251843841314,,3.4637913541393757
1692741251850141286,7968,1692741251850141286,,4.141374340317664
1692741251853815555,7969,1692741251853815555,,6.13332703250835
1692741251866251707,7970,1692741251866251707,,6.33998933287065
1692741251867772102,7971,1692741251867772102,,4.757247844196264
1692741251868926048,7972,1692741251868926048,,3.9306048804594313
1692741251876627922,7973,1692741251876627922,,5.130614902829546
1692741251878988981,7974,1692741251878988981,,5.17459974336299
1692741251884006261,7975,1692741251884006261,,5.102535681656291
1692741251889164209,7976,1692741251889164209,,4.700083968025219
1692741251894070863,7977,1692741251894070863,,4.384883475765171
1692741251898814439,7978,1692741251898814439,,5.705599367678513
1692741251904171466,7979,1692741251904171466,,4.059351869215861
1692741251909125804,7980,1692741251909125804,,4.180388846622555
1692741251913965940,7981,1692741251913965940,,4.7542314031846935
1692741251919144630,7982,1692741251919144630,,4.9293631340479225
1692741251924045324,7983,1692741251924045324,,6.417805379640079
1692741251929193258,7984,1692741251929193258,,4.2669030517979385
1692741251934060096,7985,1692741251934060096,,3.90722323616991
1692741251938776254,7986,1692741251938776254,,4.501718869197721
1692741251944651842,7987,1692741251944651842,,4.8083854517470055
1692741251948771953,7988,1692741251948771953,,4.280584106924106
1692741251957967519,7989,1692741251957967519,,5.738381209921216
1692741251958659648,7990,1692741251958659648,,4.847384984545366
1692741251963761806,7991,1692741251963761806,,4.115648176177767
1692741251968922376,7992,1692741251968922376,,4.526409317881752
1692741251973766803,7993,1692741251973766803,,6.517428250092454
1692741251978921413,7994,1692741251978921413,,5.623012664630856
1692741251983815193,7995,1692741251983815193,,5.688264542074581
1692741251993629455,7996,1692741251993629455,,4.346611610582957
1692741251994206428,7997,1692741251994206428,,4.308455322109981
1692741251998781442,7998,1692741251998781442,,3.3962501066855246
1692741252003537893,7999,1692741252003537893,,4.577872858087449
1692741252009153604,8000,1692741252009153604,,3.561181169667657
1692741252013512134,8001,1692741252013512134,,4.243200418095204
1692741252018669843,8002,1692741252018669843,,4.067867429785991
1692741252023761749,8003,1692741252023761749,,6.277615045535645
1692741252028903722,8004,1692741252028903722,,4.801585705547661
1692741252033860683,8005,1692741252033860683,,5.619494775059765
1692741252039005041,8006,1692741252039005041,,4.090829710372213
1692741252043767452,8007,1692741252043767452,,6.458660478407152
1692741252048832416,8008,1692741252048832416,,4.0886590575728725
1692741252054495573,8009,1692741252054495573,,4.476388757765279
1692741252058832883,8010,1692741252058832883,,5.658316754036874
1692741252063749551,8011,1692741252063749551,,6.810853457909025
1692741252068854331,8012,1692741252068854331,,5.715219375150196
1692741252074307441,8013,1692741252074307441,,6.551444594811357
1692741252078852891,8014,1692741252078852891,,4.7470865024909426
1692741252083750963,8015,1692741252083750963,,4.871377637394432
1692741252088510513,8016,1692741252088510513,,3.812207842631567
1692741252093917608,8017,1692741252093917608,,4.236402983408633
1692741252098651170,8018,1692741252098651170,,4.213362041328739
1692741252104015111,8019,1692741252104015111,,3.8036583786441542
1692741252108711481,8020,1692741252108711481,,4.4639171661716155
1692741252113623380,8021,1692741252113623380,,4.2967207037391315
1692741252118831157,8022,1692741252118831157,,6.484785823305129
1692741252123683929,8023,1692741252123683929,,6.658188827089959
1692741252128702640,8024,1692741252128702640,,6.531929052708883
1692741252133840322,8025,1692741252133840322,,5.3578725270710645
1692741252138693332,8026,1692741252138693332,,5.230574221245414
1692741252143967390,8027,1692741252143967390,,4.531161430956121
1692741252148597955,8028,1692741252148597955,,6.485394132410704
1692741252154000759,8029,1692741252154000759,,6.586828266303224
1692741252158930540,8030,1692741252158930540,,4.879767077937565
1692741252163694858,8031,1692741252163694858,,4.959088049992465
1692741252168947696,8032,1692741252168947696,,6.456281605604392
1692741252173832893,8033,1692741252173832893,,5.7660655435721075
1692741252179001092,8034,1692741252179001092,,5.890942096777704
1692741252183977842,8035,1692741252183977842,,4.950763648228075
1692741252188690662,8036,1692741252188690662,,5.912843196034449
1692741252194012165,8037,1692741252194012165,,6.407419316592875
1692741252198664903,8038,1692741252198664903,,6.218846883198786
1692741252203578948,8039,1692741252203578948,,6.319799043395966
1692741252208769559,8040,1692741252208769559,,4.852665944403209
1692741252213564872,8041,1692741252213564872,,5.137674009734196
1692741252218772172,8042,1692741252218772172,,4.381165470997565
1692741252223647832,8043,1692741252223647832,,5.379876003539986
1692741252228596687,8044,1692741252228596687,,4.32528982161375
1692741252233612537,8045,1692741252233612537,,4.265270932907853
1692741252238954544,8046,1692741252238954544,,4.450740973385682
1692741252243784904,8047,1692741252243784904,,4.453295142367833
1692741252248641729,8048,1692741252248641729,,5.745968891088582
1692741252253959655,8049,1692741252253959655,,4.087456481063621
1692741252259250164,8050,1692741252259250164,,4.945013159021786
1692741252263574600,8051,1692741252263574600,,5.065544210958397
1692741252268802881,8052,1692741252268802881,,4.5448365617719135
1692741252273584604,8053,1692741252273584604,,5.6082511154321875
1692741252278800010,8054,1692741252278800010,,4.559977972761046
1692741252283749341,8055,1692741252283749341,,6.0569760422342664
1692741252288793325,8056,1692741252288793325,,4.790952590161455
1692741252293731927,8057,1692741252293731927,,5.734091330317996
1692741252298823118,8058,1692741252298823118,,4.224659534970829
1692741252303641080,8059,1692741252303641080,,5.794028463525464
1692741252308859586,8060,1692741252308859586,,5.344462566509927
1692741252313640117,8061,1692741252313640117,,4.809795880207275
1692741252318808555,8062,1692741252318808555,,4.427830452848522
1692741252323692083,8063,1692741252323692083,,4.072620305443076
1692741252328828096,8064,1692741252328828096,,3.8405237541224606
1692741252336015701,8065,1692741252336015701,,4.167659720853637
1692741252338991641,8066,1692741252338991641,,5.389817750215963
1692741252343803882,8067,1692741252343803882,,4.626123831725352
1692741252348965167,8068,1692741252348965167,,4.707638601018323
1692741252353825092,8069,1692741252353825092,,5.285214157104752
1692741252359679460,8070,1692741252359679460,,4.698587195008311
1692741252363898515,8071,1692741252363898515,,5.278213303210987
1692741252368645668,8072,1692741252368645668,,5.075493423533796
1692741252373573064,8073,1692741252373573064,,5.187624047644644
1692741252378749608,8074,1692741252378749608,,5.414273098865916
1692741252383590459,8075,1692741252383590459,,4.54150592618821
1692741252388785123,8076,1692741252388785123,,4.26175236016593
1692741252393680810,8077,1692741252393680810,,4.617509178412684
1692741252398781538,8078,1692741252398781538,,6.253686510014578
1692741252403650522,8079,1692741252403650522,,4.285847420432999
1692741252408896446,8080,1692741252408896446,,4.539160340136502
1692741252413669824,8081,1692741252413669824,,4.187128433461388
1692741252418852806,8082,1692741252418852806,,6.220809832397396
1692741252423743486,8083,1692741252423743486,,4.843615137008797
1692741252428952217,8084,1692741252428952217,,5.910998566462634
1692741252433748722,8085,1692741252433748722,,5.215906347361268
1692741252440051555,8086,1692741252440051555,,4.997735995069543
1692741252443920850,8087,1692741252443920850,,5.753813376477052
1692741252448539018,8088,1692741252448539018,,4.40752304159572
1692741252453902244,8089,1692741252453902244,,5.48723935352821
1692741252458814859,8090,1692741252458814859,,4.0309858631621145
1692741252464377403,8091,1692741252464377403,,5.955608676965694
1692741252468668937,8092,1692741252468668937,,5.850581608687801
1692741252473739147,8093,1692741252473739147,,6.134019608415161
1692741252478815555,8094,1692741252478815555,,4.162107038957199
1692741252483759880,8095,1692741252483759880,,5.058187357613051
1692741252488890886,8096,1692741252488890886,,5.8450204663932475
1692741252493792772,8097,1692741252493792772,,5.777672470909155
1692741252498971939,8098,1692741252498971939,,5.288254327225479
1692741252503801107,8099,1692741252503801107,,5.940148185871271
1692741252508585453,8100,1692741252508585453,,6.056577255465092
1692741252513842344,8101,1692741252513842344,,5.229151063596234
1692741252518577814,8102,1692741252518577814,,6.238996145404117
1692741252523922443,8103,1692741252523922443,,6.301389712043517
1692741252528633832,8104,1692741252528633832,,5.299146605411798
1692741252533526897,8105,1692741252533526897,,5.891491320516129
1692741252540564060,8106,1692741252540564060,,4.352559242858124
1692741252543993234,8107,1692741252543993234,,4.4873983375997994
1692741252549323797,8108,1692741252549323797,,4.632908553164625
1692741252553629636,8109,1692741252553629636,,5.288818072663264
1692741252558830022,8110,1692741252558830022,,4.5744109415845555
1692741252563633680,8111,1692741252563633680,,5.813201231763464
1692741252568811893,8112,1692741252568811893,,4.724155153836226
1692741252573651313,8113,1692741252573651313,,4.8369027151001225
1692741252578832149,8114,1692741252578832149,,5.198934390337974
1692741252583648443,8115,1692741252583648443,,4.763606674667978
1692741252588733673,8116,1692741252588733673,,5.534419966183042
1692741252593554496,8117,1692741252593554496,,4.85182852015771
1692741252598737239,8118,1692741252598737239,,6.018828186730355
1692741252603563785,8119,1692741252603563785,,6.236941684220431
1692741252608764410,8120,1692741252608764410,,5.252115976353149
1692741252613556623,8121,1692741252613556623,,4.897719491846589
1692741252618721961,8122,1692741252618721961,,4.316368549363074
1692741252623574495,8123,1692741252623574495,,5.401398813967782
1692741252628759622,8124,1692741252628759622,,4.57260101476991
1692741252633578062,8125,1692741252633578062,,5.297564397834195
1692741252638869524,8126,1692741252638869524,,5.792646898266284
1692741252643659591,8127,1692741252643659591,,5.377528729460768
1692741252648844003,8128,1692741252648844003,,4.518061262028161
1692741252653664112,8129,1692741252653664112,,4.4332392423466445
1692741252658904790,8130,1692741252658904790,,5.850325203453139
1692741252663723230,8131,1692741252663723230,,5.225898576350698
1692741252668949842,8132,1692741252668949842,,5.565120250278695
1692741252673829793,8133,1692741252673829793,,4.714354183261624
1692741252678543567,8134,1692741252678543567,,6.046419888361703
1692741252683837652,8135,1692741252683837652,,5.657065641693736
1692741252688555955,8136,1692741252688555955,,6.212258116956295
1692741252693961381,8137,1692741252693961381,,4.8314460529098975
1692741252698931694,8138,1692741252698931694,,5.356556273550626
1692741252703770160,8139,1692741252703770160,,5.6080876943938245
1692741252708564043,8140,1692741252708564043,,6.1678062356338055
1692741252713838577,8141,1692741252713838577,,4.797902523016145
1692741252718957901,8142,1692741252718957901,,6.380792846682662
1692741252723754644,8143,1692741252723754644,,4.655352365726405
1692741252728909015,8144,1692741252728909015,,5.17917037001847
1692741252733718156,8145,1692741252733718156,,4.749230511176574
1692741252739371061,8146,1692741252739371061,,5.921535040405449
1692741252745579481,8147,1692741252745579481,,4.967163404488755
1692741252748846769,8148,1692741252748846769,,4.7489582486374315
1692741252753700256,8149,1692741252753700256,,5.244568761156041
1692741252758875846,8150,1692741252758875846,,4.469514433352248
1692741252763689517,8151,1692741252763689517,,4.643541610971791
1692741252768877983,8152,1692741252768877983,,4.895357652518072
1692741252773535728,8153,1692741252773535728,,4.554264496714837
1692741252778721094,8154,1692741252778721094,,5.45738987835412
1692741252783634424,8155,1692741252783634424,,5.328061656447082
1692741252788755893,8156,1692741252788755893,,4.857063510526306
1692741252793616294,8157,1692741252793616294,,5.7256413415355984
1692741252798773288,8158,1692741252798773288,,4.90096172964045
1692741252804028749,8159,1692741252804028749,,5.089520829064179
1692741252808788061,8160,1692741252808788061,,6.135543765203533
1692741252813659429,8161,1692741252813659429,,5.274344770472366
1692741252819103240,8162,1692741252819103240,,6.330497981467424
1692741252823554277,8163,1692741252823554277,,5.61433876506679
1692741252828706979,8164,1692741252828706979,,5.0082125111002
1692741252833542108,8165,1692741252833542108,,5.0792181334486965
1692741252838799476,8166,1692741252838799476,,4.726103718667114
1692741252843573331,8167,1692741252843573331,,4.886581445417025
1692741252848758935,8168,1692741252848758935,,5.9931387002479495
1692741252853589296,8169,1692741252853589296,,4.407605126521687
1692741252860129117,8170,1692741252860129117,,6.140694739659608
1692741252863620281,8171,1692741252863620281,,4.3655202025554685
1692741252869084596,8172,1692741252869084596,,4.518889960274433
1692741252873677253,8173,1692741252873677253,,5.418786199065658
1692741252878848552,8174,1692741252878848552,,6.14409807441905
1692741252883656263,8175,1692741252883656263,,5.1742795565065265
1692741252888836860,8176,1692741252888836860,,5.0335176424219545
1692741252893737792,8177,1692741252893737792,,4.7125548168529034
1692741252898935317,8178,1692741252898935317,,5.902724022338966
1692741252904686689,8179,1692741252904686689,,6.338973629472721
1692741252908938407,8180,1692741252908938407,,4.146608696555898
1692741252913683414,8181,1692741252913683414,,6.4554863012789365
1692741252918906927,8182,1692741252918906927,,6.260973911918082
1692741252923796653,8183,1692741252923796653,,6.321489651157303
1692741252928523063,8184,1692741252928523063,,6.2526604698258845
1692741252933581113,8185,1692741252933581113,,5.374363357312846
1692741252938806056,8186,1692741252938806056,,4.189918172063836
1692741252943606615,8187,1692741252943606615,,6.586970152426531
1692741252950094938,8188,1692741252950094938,,4.724267067637152
1692741252954658508,8189,1692741252954658508,,5.471157872868384
1692741252958910465,8190,1692741252958910465,,6.262637123020271
1692741252963691234,8191,1692741252963691234,,6.4185403015441045
1692741252968914985,8192,1692741252968914985,,6.174623109516291
1692741252973819971,8193,1692741252973819971,,4.967397497609966
1692741252978512287,8194,1692741252978512287,,4.939416696382011
1692741252983890771,8195,1692741252983890771,,6.039132467200494
1692741252988587617,8196,1692741252988587617,,4.839722008162679
1692741252993965387,8197,1692741252993965387,,5.694775935112389
1692741252999688386,8198,1692741252999688386,,5.422524858211221
1692741253003609657,8199,1692741253003609657,,5.064447013664411
1692741253008823871,8200,1692741253008823871,,5.515761285864071
1692741253013679981,8201,1692741253013679981,,4.811692886620896
1692741253018744468,8202,1692741253018744468,,4.908008167814064
1692741253023668766,8203,1692741253023668766,,6.104441717242895
1692741253033234119,8204,1692741253033234119,,6.219282596453901
1692741253033732652,8205,1692741253033732652,,4.429000348992521
1692741253038531303,8206,1692741253038531303,,4.6317232744922405
1692741253043935537,8207,1692741253043935537,,4.412843450351138
1692741253048707008,8208,1692741253048707008,,4.9051760373428435
1692741253053571701,8209,1692741253053571701,,4.3660686197943
1692741253058763265,8210,1692741253058763265,,5.406345166281376
1692741253064662456,8211,1692741253064662456,,4.894786798463819
1692741253068731307,8212,1692741253068731307,,4.4044422569066635
1692741253073733091,8213,1692741253073733091,,4.502770317980317
1692741253078774213,8214,1692741253078774213,,5.507507698889013
1692741253083948612,8215,1692741253083948612,,4.422274191651098
1692741253088959455,8216,1692741253088959455,,4.545886412661465
1692741253093774795,8217,1692741253093774795,,5.702261237251796
1692741253098557710,8218,1692741253098557710,,5.5372188885321645
1692741253103868246,8219,1692741253103868246,,4.837054130643381
1692741253112985372,8220,1692741253112985372,,6.102895841577152
1692741253113764286,8221,1692741253113764286,,5.636234728334278
1692741253118590354,8222,1692741253118590354,,5.481649614809801
1692741253123956441,8223,1692741253123956441,,6.3739176258987245
1692741253128632068,8224,1692741253128632068,,6.221249546561793
1692741253133534669,8225,1692741253133534669,,5.348870439907628
1692741253138823986,8226,1692741253138823986,,6.021234288357672
1692741253143530607,8227,1692741253143530607,,5.13173387639329
1692741253148790359,8228,1692741253148790359,,5.074684381961553
1692741253155283451,8229,1692741253155283451,,6.135325747878093
1692741253158606529,8230,1692741253158606529,,4.972744330408769
1692741253163525104,8231,1692741253163525104,,6.5842449112180095
1692741253168940067,8232,1692741253168940067,,5.330401889639098
1692741253173508405,8233,1692741253173508405,,5.582990201283292
1692741253178696870,8234,1692741253178696870,,4.552361187369666
1692741253183565855,8235,1692741253183565855,,6.282078505752441
1692741253188767671,8236,1692741253188767671,,5.788275777247347
1692741253193586587,8237,1692741253193586587,,5.636504074711165
1692741253198742866,8238,1692741253198742866,,4.5752309203330315
1692741253203584671,8239,1692741253203584671,,6.579678158867376
1692741253208794116,8240,1692741253208794116,,5.611777021086681
1692741253213603734,8241,1692741253213603734,,5.212303053884093
1692741253219071149,8242,1692741253219071149,,6.098265743183001
1692741253223754167,8243,1692741253223754167,,4.623894770717965
1692741253228739261,8244,1692741253228739261,,4.6355533807868
1692741253233547449,8245,1692741253233547449,,6.290180498944601
1692741253238774299,8246,1692741253238774299,,4.660373389475025
1692741253243633508,8247,1692741253243633508,,6.102324389462588
1692741253250163555,8248,1692741253250163555,,5.393078109777819
1692741253253535270,8249,1692741253253535270,,3.9450799504564547
1692741253258715629,8250,1692741253258715629,,4.1327767155098485
1692741253263505458,8251,1692741253263505458,,4.2781417931297065
1692741253269469738,8252,1692741253269469738,,4.740937853610013
1692741253273724317,8253,1692741253273724317,,4.3407438639608555
1692741253278904676,8254,1692741253278904676,,4.405501985020621
1692741253283866167,8255,1692741253283866167,,4.710135470272518
1692741253288879632,8256,1692741253288879632,,6.587868784434519
1692741253293827533,8257,1692741253293827533,,6.1891722809172505
1692741253298583745,8258,1692741253298583745,,5.316940203562366
1692741253303945779,8259,1692741253303945779,,6.2935907100788056
1692741253308602333,8260,1692741253308602333,,5.3911026664325306
1692741253313508510,8261,1692741253313508510,,6.440439829276249
1692741253318693637,8262,1692741253318693637,,5.590206227715011
1692741253324076175,8263,1692741253324076175,,5.35780318328374
1692741253328736305,8264,1692741253328736305,,5.1538190251351175
1692741253334377288,8265,1692741253334377288,,6.40503200667407
1692741253338782787,8266,1692741253338782787,,6.222396056634192
1692741253343636512,8267,1692741253343636512,,6.480306537154271
1692741253348764181,8268,1692741253348764181,,5.796372134773051
1692741253353559494,8269,1692741253353559494,,4.204745692591319
1692741253359751701,8270,1692741253359751701,,6.031808210241395
1692741253363567829,8271,1692741253363567829,,4.600021415270273
1692741253368773221,8272,1692741253368773221,,4.488898976465186
1692741253373637676,8273,1692741253373637676,,6.339203700287615
1692741253378824710,8274,1692741253378824710,,4.939460201633442
1692741253383759975,8275,1692741253383759975,,5.058393261676071
1692741253389186859,8276,1692741253389186859,,6.295457240814468
1692741253393527507,8277,1692741253393527507,,4.47446060304722
1692741253398701906,8278,1692741253398701906,,5.999085587873976
1692741253403519153,8279,1692741253403519153,,5.181301365964044
1692741253408771276,8280,1692741253408771276,,5.464774981295324
1692741253413560390,8281,1692741253413560390,,5.796215613570052
1692741253418757915,8282,1692741253418757915,,5.455196678075784
1692741253423640489,8283,1692741253423640489,,6.280616901113343
1692741253428762912,8284,1692741253428762912,,5.8608058607713405
1692741253433597087,8285,1692741253433597087,,4.687928898035057
1692741253438775300,8286,1692741253438775300,,4.231735669608571
1692741253444534301,8287,1692741253444534301,,5.4934488335047265
1692741253448791503,8288,1692741253448791503,,6.42523496428811
1692741253453673124,8289,1692741253453673124,,6.363322000469773
1692741253458779811,8290,1692741253458779811,,5.810215024557024
1692741253464247226,8291,1692741253464247226,,5.956120978143845
1692741253468834400,8292,1692741253468834400,,5.380632907977236
1692741253474406242,8293,1692741253474406242,,4.998795354120368
1692741253480801105,8294,1692741253480801105,,5.957875217104658
1692741253483884811,8295,1692741253483884811,,3.649842887232956
1692741253489038228,8296,1692741253489038228,,5.422497581267367
1692741253493529081,8297,1692741253493529081,,5.536267694947349
1692741253498808383,8298,1692741253498808383,,5.437426896498006
1692741253503637075,8299,1692741253503637075,,5.834041171670141
1692741253508767604,8300,1692741253508767604,,5.77127286219131
1692741253513620138,8301,1692741253513620138,,5.765516145285807
1692741253518787622,8302,1692741253518787622,,5.542628621934378
1692741253523688793,8303,1692741253523688793,,6.1593249092337325
1692741253528787612,8304,1692741253528787612,,5.941694291654259
1692741253533641815,8305,1692741253533641815,,5.105211397962644
1692741253538796424,8306,1692741253538796424,,5.675136469562169
1692741253543591499,8307,1692741253543591499,,4.780106285801466
1692741253548752307,8308,1692741253548752307,,5.1303746237204075
1692741253556209802,8309,1692741253556209802,,5.109049920434228
1692741253558880567,8310,1692741253558880567,,5.691041486720182
1692741253564477682,8311,1692741253564477682,,5.885673552397853
1692741253568876028,8312,1692741253568876028,,5.1532173859415975
1692741253573750495,8313,1692741253573750495,,5.58501396946693
1692741253578501939,8314,1692741253578501939,,5.154392529653197
1692741253588255882,8315,1692741253588255882,,5.1799797274262875
1692741253598021745,8316,1692741253598021745,,5.595273809017052
1692741253599843978,8317,1692741253599843978,,6.133464698232115
1692741253603877305,8318,1692741253603877305,,5.880551654745332
1692741253608956575,8319,1692741253608956575,,5.38571651626347
1692741253613801002,8320,1692741253613801002,,5.273028951842207
1692741253618935108,8321,1692741253618935108,,5.885585471063387
1692741253623868227,8322,1692741253623868227,,4.846339134194477
1692741253629090309,8323,1692741253629090309,,5.738080293208289
1692741253633979558,8324,1692741253633979558,,5.131719611489981
1692741253638678073,8325,1692741253638678073,,5.175854882920218
1692741253644154787,8326,1692741253644154787,,4.272787656528661
1692741253648823976,8327,1692741253648823976,,5.909891203582982
1692741253653723716,8328,1692741253653723716,,6.1018844429304435
1692741253658895730,8329,1692741253658895730,,5.082209822078476
1692741253663819074,8330,1692741253663819074,,4.971873494167509
1692741253668899536,8331,1692741253668899536,,5.473930563211029
1692741253673752307,8332,1692741253673752307,,6.294679709343842
1692741253679703474,8333,1692741253679703474,,5.16084253401617
1692741253683807373,8334,1692741253683807373,,4.4857927072408845
1692741253689089536,8335,1692741253689089536,,5.154348981082771
1692741253693864345,8336,1692741253693864345,,5.5236209780090535
1692741253699171543,8337,1692741253699171543,,6.022543954278759
1692741253704278230,8338,1692741253704278230,,5.000432221327748
1692741253708890914,8339,1692741253708890914,,6.482038648482619
1692741253713737010,8340,1692741253713737010,,6.470087803530109
1692741253718486309,8341,1692741253718486309,,4.924821362774397
1692741253723709583,8342,1692741253723709583,,5.518682049582876
1692741253728756189,8343,1692741253728756189,,5.286464691119464
1692741253733578205,8344,1692741253733578205,,4.860660968515644
1692741253739349603,8345,1692741253739349603,,5.296069341283419
1692741253743530273,8346,1692741253743530273,,5.517954796743157
1692741253748720169,8347,1692741253748720169,,5.6664839999121925
1692741253753533840,8348,1692741253753533840,,5.655229280294909
1692741253758738279,8349,1692741253758738279,,5.791245523040349
1692741253763544321,8350,1692741253763544321,,5.6218405848719435
1692741253769239664,8351,1692741253769239664,,5.594509292503086
1692741253773616313,8352,1692741253773616313,,5.47151321190297
1692741253778725862,8353,1692741253778725862,,4.697533257053497
1692741253783525705,8354,1692741253783525705,,5.072360531143976
1692741253788762569,8355,1692741253788762569,,4.355261412797142
1692741253795178651,8356,1692741253795178651,,4.753418835515404
1692741253798540353,8357,1692741253798540353,,5.571972230602778
1692741253803477764,8358,1692741253803477764,,5.12529709160769
1692741253808869361,8359,1692741253808869361,,5.674919979688309
1692741253813768863,8360,1692741253813768863,,6.000326954280356
1692741253818800687,8361,1692741253818800687,,5.33740503681541
1692741253823686838,8362,1692741253823686838,,4.473048315038827
1692741253830626487,8363,1692741253830626487,,6.088455047113692
1692741253834771633,8364,1692741253834771633,,6.25486724668727
1692741253839100122,8365,1692741253839100122,,5.0007896085438475
1692741253843953609,8366,1692741253843953609,,6.068650045695479
1692741253848642587,8367,1692741253848642587,,6.447632494794116
1692741253853981494,8368,1692741253853981494,,5.876575433963805
1692741253858689785,8369,1692741253858689785,,6.532042334159733
1692741253863564491,8370,1692741253863564491,,4.899600695053961
1692741253868772745,8371,1692741253868772745,,5.066193907335479
1692741253873660326,8372,1692741253873660326,,6.538407069663701
1692741253878794908,8373,1692741253878794908,,6.26437620337161
1692741253883998155,8374,1692741253883998155,,6.755400578346956
1692741253888759136,8375,1692741253888759136,,3.673963693679425
1692741253893687248,8376,1692741253893687248,,5.417442868778198
1692741253899220466,8377,1692741253899220466,,4.306462929273237
1692741253903647899,8378,1692741253903647899,,4.16490521799982
1692741253908790826,8379,1692741253908790826,,6.549794950364387
1692741253913602352,8380,1692741253913602352,,6.613326782596884
1692741253918811559,8381,1692741253918811559,,4.40443271591644
1692741253923764228,8382,1692741253923764228,,4.829133228578092
1692741253928820848,8383,1692741253928820848,,5.259031283053925
1692741253933685541,8384,1692741253933685541,,5.26186251501752
1692741253938822746,8385,1692741253938822746,,4.2559590108344265
1692741253943675279,8386,1692741253943675279,,6.164293303175363
1692741253948583841,8387,1692741253948583841,,5.039955228662757
1692741253955342054,8388,1692741253955342054,,5.678516623893526
1692741253959461927,8389,1692741253959461927,,5.274069522510227
1692741253963874816,8390,1692741253963874816,,4.733533114906264
1692741253968801021,8391,1692741253968801021,,5.443818016673294
1692741253974112033,8392,1692741253974112033,,4.791772282001443
1692741253978819131,8393,1692741253978819131,,4.982836553065119
1692741253983643054,8394,1692741253983643054,,5.532126347715491
1692741253988820552,8395,1692741253988820552,,5.936720103157667
1692741253993619203,8396,1692741253993619203,,4.890685412093157
1692741254000007152,8397,1692741254000007152,,5.3285497070339884
1692741254003562927,8398,1692741254003562927,,5.088863516255281
1692741254008734464,8399,1692741254008734464,,4.853446916178311
1692741254013509273,8400,1692741254013509273,,5.5946921298221195
1692741254018714427,8401,1692741254018714427,,4.576677502000346
1692741254023586750,8402,1692741254023586750,,4.875465396066533
1692741254028727293,8403,1692741254028727293,,5.201672592491898
1692741254033562421,8404,1692741254033562421,,5.655923431965614
1692741254038752317,8405,1692741254038752317,,5.074963363600385
1692741254043624639,8406,1692741254043624639,,5.565166006035995
1692741254048731088,8407,1692741254048731088,,5.401016195899087
1692741254053566694,8408,1692741254053566694,,5.579106142528563
1692741254058768749,8409,1692741254058768749,,5.28795265454884
1692741254063740253,8410,1692741254063740253,,6.166096288789159
1692741254068504571,8411,1692741254068504571,,4.016023119986207
1692741254073916673,8412,1692741254073916673,,6.1128641297092985
1692741254078588962,8413,1692741254078588962,,5.544471152335344
1692741254083469867,8414,1692741254083469867,,5.647602195239089
1692741254088772058,8415,1692741254088772058,,6.066633378208523
1692741254093509435,8416,1692741254093509435,,5.371254318159342
1692741254098748445,8417,1692741254098748445,,5.984109020850467
1692741254103500366,8418,1692741254103500366,,6.255693268159458
1692741254108737230,8419,1692741254108737230,,6.128017191514306
1692741254113581657,8420,1692741254113581657,,5.333618280283921
1692741254118724822,8421,1692741254118724822,,5.992545617137048
1692741254123629570,8422,1692741254123629570,,5.394625521678336
1692741254128756761,8423,1692741254128756761,,6.316499572315063
1692741254133602142,8424,1692741254133602142,,5.234016584598235
1692741254138786554,8425,1692741254138786554,,4.699140498548564
1692741254143633365,8426,1692741254143633365,,4.38131204767613
1692741254148754835,8427,1692741254148754835,,4.843363673209025
1692741254153523921,8428,1692741254153523921,,5.549780250533912
1692741254158755064,8429,1692741254158755064,,5.563199830436971
1692741254163522243,8430,1692741254163522243,,5.016790024160681
1692741254168705224,8431,1692741254168705224,,5.339893953556621
1692741254173728942,8432,1692741254173728942,,5.2311183689842675
1692741254179009675,8433,1692741254179009675,,5.542472438701844
1692741254183946609,8434,1692741254183946609,,5.108423564237614
1692741254188606262,8435,1692741254188606262,,5.2171104152988095
1692741254194008827,8436,1692741254194008827,,5.409332779507296
1692741254198656797,8437,1692741254198656797,,5.998182866412596
1692741254204843044,8438,1692741254204843044,,5.0800541811800715
1692741254209176063,8439,1692741254209176063,,5.342300715789447
1692741254213603496,8440,1692741254213603496,,4.865695317750981
1692741254218760251,8441,1692741254218760251,,5.364323772606455
1692741254223608970,8442,1692741254223608970,,5.4668622272852625
1692741254228801488,8443,1692741254228801488,,5.244296826692879
1692741254233578681,8444,1692741254233578681,,5.2887128054479025
1692741254238985538,8445,1692741254238985538,,5.34955898642054
1692741254243707418,8446,1692741254243707418,,5.109435729878618
1692741254248438119,8447,1692741254248438119,,5.709992035502392
1692741254253844738,8448,1692741254253844738,,5.781352249112578
1692741254258900642,8449,1692741254258900642,,5.794367505443837
1692741254263753175,8450,1692741254263753175,,4.352265682221323
1692741254268573999,8451,1692741254268573999,,4.497679959543295
1692741254274230957,8452,1692741254274230957,,4.742147571390071
1692741254278965950,8453,1692741254278965950,,5.88741358236923
1692741254283644676,8454,1692741254283644676,,4.347239741558681
1692741254289269208,8455,1692741254289269208,,5.1186726326773
1692741254293487787,8456,1692741254293487787,,3.867094257218477
1692741254298668622,8457,1692741254298668622,,4.265079211624988
1692741254303469657,8458,1692741254303469657,,4.511324330674613
1692741254308704137,8459,1692741254308704137,,5.058872992302881
1692741254313508272,8460,1692741254313508272,,4.348776648059616
1692741254318698644,8461,1692741254318698644,,4.517999030728821
1692741254323580741,8462,1692741254323580741,,5.1528372820510135
1692741254328703641,8463,1692741254328703641,,5.337685251713746
1692741254333541393,8464,1692741254333541393,,4.8458474797952595
1692741254338770627,8465,1692741254338770627,,3.990835372331267
1692741254343601703,8466,1692741254343601703,,4.866342896554449
1692741254348759651,8467,1692741254348759651,,4.798974664574214
1692741254353579759,8468,1692741254353579759,,5.611716226110244
1692741254358803987,8469,1692741254358803987,,5.7564969082630135
1692741254363611698,8470,1692741254363611698,,4.90823857731695
1692741254368771076,8471,1692741254368771076,,4.558455550739883
1692741254373611688,8472,1692741254373611688,,5.705009099163444
1692741254378752708,8473,1692741254378752708,,5.070971738767778
1692741254383589982,8474,1692741254383589982,,5.278096305929097
1692741254388753175,8475,1692741254388753175,,5.496942072023357
1692741254393625974,8476,1692741254393625974,,5.1122051276780685
1692741254399168491,8477,1692741254399168491,,4.909717789319903
1692741254403532981,8478,1692741254403532981,,5.036252402363699
1692741254409567594,8479,1692741254409567594,,5.153842247877257
1692741254413538932,8480,1692741254413538932,,5.746561591348419
1692741254418686866,8481,1692741254418686866,,5.223663656646053
1692741254423551082,8482,1692741254423551082,,5.529976774540158
1692741254429070711,8483,1692741254429070711,,5.362241244790512
1692741254433508634,8484,1692741254433508634,,5.742789027836328
1692741254439359188,8485,1692741254439359188,,5.488917784550738
1692741254443529844,8486,1692741254443529844,,4.768692200899609
1692741254448689937,8487,1692741254448689937,,4.945591825025703
1692741254453506469,8488,1692741254453506469,,5.866818957851105
1692741254458693981,8489,1692741254458693981,,5.988835958063345
1692741254463504314,8490,1692741254463504314,,5.559061643052146
1692741254468703269,8491,1692741254468703269,,5.651084923990055
1692741254473553895,8492,1692741254473553895,,4.946552331458069
1692741254478761196,8493,1692741254478761196,,5.09580686060984
1692741254483548164,8494,1692741254483548164,,6.316046629329849
1692741254488746643,8495,1692741254488746643,,5.386986191496556
1692741254493562698,8496,1692741254493562698,,5.167224732167664
1692741254498756170,8497,1692741254498756170,,4.890270652749946
1692741254503554105,8498,1692741254503554105,,5.84947720591465
1692741254508742809,8499,1692741254508742809,,5.234598949932095
1692741254514193773,8500,1692741254514193773,,4.759773866049061
1692741254518495798,8501,1692741254518495798,,6.315288782170075
1692741254523928880,8502,1692741254523928880,,4.825749911962149
1692741254528578758,8503,1692741254528578758,,5.595426108905933
1692741254533470630,8504,1692741254533470630,,6.026613342527284
1692741254538839817,8505,1692741254538839817,,4.88583857199892
1692741254543611288,8506,1692741254543611288,,6.301199470452685
1692741254548731565,8507,1692741254548731565,,5.439049384076005
1692741254553553104,8508,1692741254553553104,,4.606024384715997
1692741254558811664,8509,1692741254558811664,,5.541082517598789
1692741254563638925,8510,1692741254563638925,,5.022096440536014
1692741254569296836,8511,1692741254569296836,,4.948911419001955
1692741254573692083,8512,1692741254573692083,,5.683050947593929
1692741254579044342,8513,1692741254579044342,,4.972505418913224
1692741254584165334,8514,1692741254584165334,,5.628530222803752
1692741254588793754,8515,1692741254588793754,,5.809087322967197
1692741254593667268,8516,1692741254593667268,,5.599992719432605
1692741254598767042,8517,1692741254598767042,,4.933609963702036
1692741254603489637,8518,1692741254603489637,,5.335268721838866
1692741254608718395,8519,1692741254608718395,,5.272160748152958
1692741254614341020,8520,1692741254614341020,,5.670104454238481
1692741254618698596,8521,1692741254618698596,,5.264853477459861
1692741254623602628,8522,1692741254623602628,,5.900683457614646
1692741254628576517,8523,1692741254628576517,,5.818590228586571
1692741254633944988,8524,1692741254633944988,,5.511999079612762
1692741254638625860,8525,1692741254638625860,,5.684388341935245
1692741254643585681,8526,1692741254643585681,,5.2430404298980715
1692741254648694038,8527,1692741254648694038,,5.677901210261164
1692741254653412342,8528,1692741254653412342,,5.439191748834863
1692741254658698558,8529,1692741254658698558,,5.320934891515976
1692741254663489103,8530,1692741254663489103,,6.11717392039095
1692741254668677091,8531,1692741254668677091,,5.064246861437938
1692741254673541784,8532,1692741254673541784,,5.371463798849097
1692741254678636312,8533,1692741254678636312,,5.830263999728255
1692741254683511018,8534,1692741254683511018,,5.828397770773843
1692741254688698291,8535,1692741254688698291,,5.01412410388052
1692741254693733930,8536,1692741254693733930,,5.3417301861049316
1692741254698760271,8537,1692741254698760271,,5.692891357256951
1692741254703661203,8538,1692741254703661203,,5.32277404384756
1692741254709116697,8539,1692741254709116697,,5.3580950893995025
1692741254713523387,8540,1692741254713523387,,5.390245715579283
1692741254718681812,8541,1692741254718681812,,5.802259647659953
1692741254723531961,8542,1692741254723531961,,5.64234407653081
1692741254728682279,8543,1692741254728682279,,4.886472625137093
1692741254733500480,8544,1692741254733500480,,6.0764375930514225
1692741254738955020,8545,1692741254738955020,,5.61534573009127
1692741254743782281,8546,1692741254743782281,,5.50970956921975
1692741254748519897,8547,1692741254748519897,,5.3265103905530236
1692741254753447532,8548,1692741254753447532,,5.451978482726088
1692741254758737564,8549,1692741254758737564,,5.331429781938912
1692741254763477802,8550,1692741254763477802,,5.104621068356623
1692741254768667936,8551,1692741254768667936,,5.1858729338286915
1692741254773517131,8552,1692741254773517131,,5.450726435582113
1692741254778649091,8553,1692741254778649091,,5.597065171641619
1692741254783712863,8554,1692741254783712863,,5.3203001773740235
1692741254789150953,8555,1692741254789150953,,4.760889050299541
1692741254793575525,8556,1692741254793575525,,5.204701322663777
1692741254799155235,8557,1692741254799155235,,5.000472471159457
1692741254803554534,8558,1692741254803554534,,5.2387736809644565
1692741254808703184,8559,1692741254808703184,,5.220529268466998
1692741254813552379,8560,1692741254813552379,,5.1738893222750955
1692741254819248676,8561,1692741254819248676,,5.164197744695503
1692741254823623418,8562,1692741254823623418,,4.657411729682694
1692741254828770875,8563,1692741254828770875,,5.461798288947945
1692741254833611011,8564,1692741254833611011,,5.8407937665685585
1692741254838943481,8565,1692741254838943481,,5.624387304520483
1692741254843697547,8566,1692741254843697547,,5.101773141804977
1692741254848470926,8567,1692741254848470926,,5.266117453814023
1692741254853545904,8568,1692741254853545904,,5.511145191063532
1692741254858768939,8569,1692741254858768939,,5.346646935495344
1692741254863477945,8570,1692741254863477945,,6.280306765626337
1692741254871926784,8571,1692741254871926784,,4.94796232429357
1692741254874006986,8572,1692741254874006986,,5.107329574225367
1692741254878673553,8573,1692741254878673553,,5.670724682149523
1692741254883454322,8574,1692741254883454322,,5.254881601090814
1692741254889253854,8575,1692741254889253854,,5.57697437062861
1692741254896301031,8576,1692741254896301031,,5.772678538019905
1692741254898961067,8577,1692741254898961067,,5.523268492202874
1692741254903579473,8578,1692741254903579473,,5.405341478564658
1692741254908752679,8579,1692741254908752679,,5.787453144471415
1692741254913666486,8580,1692741254913666486,,5.45264153207356
1692741254918706655,8581,1692741254918706655,,5.516479371603443
1692741254923597335,8582,1692741254923597335,,5.364288969192569
1692741254928701400,8583,1692741254928701400,,5.44879120948153
1692741254933519601,8584,1692741254933519601,,5.166061741388581
1692741254938683748,8585,1692741254938683748,,5.981934911971628
1692741254943554639,8586,1692741254943554639,,5.195446893143619
1692741254948951959,8587,1692741254948951959,,5.606794377156802
1692741254953483819,8588,1692741254953483819,,5.297571042950474
1692741254958679199,8589,1692741254958679199,,5.636049650119582
1692741254963507413,8590,1692741254963507413,,5.183876500447867
1692741254968641996,8591,1692741254968641996,,5.967536535184875
1692741254973562002,8592,1692741254973562002,,5.016939487880597
1692741254981735706,8593,1692741254981735706,,4.599590300620365
1692741254984395027,8594,1692741254984395027,,5.0623568018432445
1692741254988781452,8595,1692741254988781452,,5.2521306850421725
1692741254993619441,8596,1692741254993619441,,4.888871921367399
1692741254998843431,8597,1692741254998843431,,6.523832378823231
1692741255003545284,8598,1692741255003545284,,5.2625235281578435
1692741255008806705,8599,1692741255008806705,,5.3020058025460335
1692741255013608694,8600,1692741255013608694,,5.467493505333065
1692741255020242691,8601,1692741255020242691,,4.275058112280391
1692741255023983955,8602,1692741255023983955,,4.958786999724738
1692741255028539896,8603,1692741255028539896,,6.828697860095963
1692741255033460378,8604,1692741255033460378,,5.1296730236073165
1692741255038616895,8605,1692741255038616895,,5.127318826749081
1692741255043483018,8606,1692741255043483018,,4.654205587201221
1692741255048611402,8607,1692741255048611402,,4.405749523328827
1692741255053489923,8608,1692741255053489923,,4.6932509332760155
1692741255058683395,8609,1692741255058683395,,5.8047526757660615
1692741255063495635,8610,1692741255063495635,,5.132118508135267
1692741255068657398,8611,1692741255068657398,,5.5578374751236375
1692741255073551654,8612,1692741255073551654,,4.563256021351127
1692741255078449964,8613,1692741255078449964,,4.721033775745732
1692741255083860397,8614,1692741255083860397,,5.866050736047572
1692741255088607549,8615,1692741255088607549,,5.856216443713029
1692741255093520164,8616,1692741255093520164,,6.3303319967639196
1692741255100411891,8617,1692741255100411891,,6.33346023705008
1692741255103852748,8618,1692741255103852748,,5.223905328197562
1692741255108721494,8619,1692741255108721494,,6.072496762559352
1692741255113516092,8620,1692741255113516092,,5.026694541341606
1692741255118669986,8621,1692741255118669986,,4.3298027983628415
1692741255123564004,8622,1692741255123564004,,4.028300354658758
1692741255128674268,8623,1692741255128674268,,6.509197508253072
1692741255133479595,8624,1692741255133479595,,4.843321303142311
1692741255138651132,8625,1692741255138651132,,4.886550993862268
1692741255143559217,8626,1692741255143559217,,4.40636993550716
1692741255148671627,8627,1692741255148671627,,5.63475402290364
1692741255153491497,8628,1692741255153491497,,5.836401772478496
1692741255158692121,8629,1692741255158692121,,4.830686611271444
1692741255163501977,8630,1692741255163501977,,5.542764796995506
1692741255168692111,8631,1692741255168692111,,6.315087776253738
1692741255173554658,8632,1692741255173554658,,5.85039037344523
1692741255178681135,8633,1692741255178681135,,5.828813168325103
1692741255183518886,8634,1692741255183518886,,5.253682265335286
1692741255189439773,8635,1692741255189439773,,4.313106927408203
1692741255193771123,8636,1692741255193771123,,5.864933419311664
1692741255198511600,8637,1692741255198511600,,5.484918246332267
1692741255203720092,8638,1692741255203720092,,5.214564025891181
1692741255208773136,8639,1692741255208773136,,6.088879524435469
1692741255213519811,8640,1692741255213519811,,5.716057543809736
1692741255218707799,8641,1692741255218707799,,5.932209087512694
1692741255223475456,8642,1692741255223475456,,4.724571054647581
1692741255228946208,8643,1692741255228946208,,4.865251290318216
1692741255233441114,8644,1692741255233441114,,4.378553565690829
1692741255238826036,8645,1692741255238826036,,5.733888384488853
1692741255243658542,8646,1692741255243658542,,5.840173214976242
1692741255249324083,8647,1692741255249324083,,4.98789954317599
1692741255253668546,8648,1692741255253668546,,5.621667480760062
1692741255258969545,8649,1692741255258969545,,5.6751005235381236
1692741255288088321,8650,1692741255288088321,,5.344931566229461
1692741255288770914,8651,1692741255288770914,,4.942843360391043
1692741255293890953,8652,1692741255293890953,,5.770402493868252
1692741255299903631,8653,1692741255299903631,,6.133625231061246
1692741255305524110,8654,1692741255305524110,,5.126063089300331
1692741255308976173,8655,1692741255308976173,,5.278908264845909
1692741255314196825,8656,1692741255314196825,,5.303639355556505
1692741255318891286,8657,1692741255318891286,,6.156073121553215
1692741255323789358,8658,1692741255323789358,,4.739126983553096
1692741255331604719,8659,1692741255331604719,,5.132755689676976
1692741255334317922,8660,1692741255334317922,,5.389598197652853
1692741255338717937,8661,1692741255338717937,,5.774369998979466
1692741255343954801,8662,1692741255343954801,,5.368199530728989
1692741255348615646,8663,1692741255348615646,,5.081731476635775
1692741255353736639,8664,1692741255353736639,,4.751157424767156
1692741255358636856,8665,1692741255358636856,,5.217764812189801
1692741255364099025,8666,1692741255364099025,,5.417484603253692
1692741255368775606,8667,1692741255368775606,,5.296479977806133
1692741255374026775,8668,1692741255374026775,,5.018707199565648
1692741255378743886,8669,1692741255378743886,,5.41223794757819
1692741255383837461,8670,1692741255383837461,,5.661752266251004
1692741255388669252,8671,1692741255388669252,,5.292550312451373
1692741255393932104,8672,1692741255393932104,,5.8859655835402025
1692741255398604631,8673,1692741255398604631,,5.875190479277077
1692741255403942108,8674,1692741255403942108,,5.253636918301437
1692741255408750772,8675,1692741255408750772,,5.635675191796571
1692741255414062738,8676,1692741255414062738,,5.164707356537826
1692741255418398618,8677,1692741255418398618,,5.461934988113147
1692741255423642158,8678,1692741255423642158,,5.36191399449779
1692741255428476095,8679,1692741255428476095,,5.297392296937818
1692741255434101819,8680,1692741255434101819,,5.025414678005929
1692741255438489913,8681,1692741255438489913,,5.828572535877589
1692741255443753004,8682,1692741255443753004,,5.6105099877731535
1692741255448462009,8683,1692741255448462009,,5.360017230778065
1692741255453638553,8684,1692741255453638553,,5.22235382022413
1692741255458507061,8685,1692741255458507061,,5.811488891193036
1692741255463656187,8686,1692741255463656187,,5.422547130880365
1692741255468484163,8687,1692741255468484163,,5.098826046168214
1692741255473616600,8688,1692741255473616600,,5.393057077109298
1692741255478472948,8689,1692741255478472948,,4.805158335168442
1692741255483592033,8690,1692741255483592033,,5.4579385598940995
1692741255488550662,8691,1692741255488550662,,5.3872386889798305
1692741255493698358,8692,1692741255493698358,,6.117248874693228
1692741255498480558,8693,1692741255498480558,,5.761319442085316
1692741255503942489,8694,1692741255503942489,,5.06760150644159
1692741255510074138,8695,1692741255510074138,,5.020209225901017
1692741255513537645,8696,1692741255513537645,,5.342678693963077
1692741255518900632,8697,1692741255518900632,,5.354389063208922
1692741255523676395,8698,1692741255523676395,,5.59522646034592
1692741255528510093,8699,1692741255528510093,,5.863887299739631
1692741255533543586,8700,1692741255533543586,,4.941572641786583
1692741255538759708,8701,1692741255538759708,,5.66569227777277
1692741255543636083,8702,1692741255543636083,,5.140160377265565
1692741255548457145,8703,1692741255548457145,,5.6148771192810285
1692741255553650856,8704,1692741255553650856,,5.388811217695949
1692741255558497428,8705,1692741255558497428,,5.376520166724083
1692741255563693284,8706,1692741255563693284,,5.235931276043737
1692741255568510293,8707,1692741255568510293,,5.15341096253661
1692741255573759555,8708,1692741255573759555,,5.276535335377047
1692741255578530311,8709,1692741255578530311,,5.225718670237718
1692741255583660602,8710,1692741255583660602,,5.442226521902869
1692741255588730335,8711,1692741255588730335,,5.300234106375721
1692741255593749046,8712,1692741255593749046,,4.635416736978639
1692741255598624706,8713,1692741255598624706,,4.739069941052108
1692741255603803873,8714,1692741255603803873,,5.495493936173129
1692741255608626127,8715,1692741255608626127,,5.343084283762768
1692741255613746643,8716,1692741255613746643,,4.723856635576017
1692741255618602752,8717,1692741255618602752,,5.311625182145674
1692741255624859571,8718,1692741255624859571,,5.3464795339971785
1692741255628534317,8719,1692741255628534317,,5.352065359020455
1692741255633761644,8720,1692741255633761644,,5.926946620943277
1692741255638580083,8721,1692741255638580083,,5.121044233084163
1692741255643667936,8722,1692741255643667936,,4.679401966772404
1692741255648442268,8723,1692741255648442268,,5.842562886576345
1692741255653686761,8724,1692741255653686761,,4.801853192881617
1692741255658541202,8725,1692741255658541202,,5.204750596102031
1692741255663769960,8726,1692741255663769960,,5.769492983351728
1692741255668494939,8727,1692741255668494939,,5.828245079344559
1692741255673707008,8728,1692741255673707008,,5.671311920787965
1692741255678504228,8729,1692741255678504228,,5.239011999730209
1692741255683635234,8730,1692741255683635234,,6.022015929963549
1692741255688484430,8731,1692741255688484430,,5.322310060880039
1692741255693722963,8732,1692741255693722963,,5.052420581099785
1692741255698536157,8733,1692741255698536157,,5.115290328436525
1692741255703695058,8734,1692741255703695058,,5.331312205853956
1692741255708565473,8735,1692741255708565473,,5.505559431036368
1692741255714870452,8736,1692741255714870452,,5.4024578144729825
1692741255718487977,8737,1692741255718487977,,5.221242074170762
1692741255723695755,8738,1692741255723695755,,4.859966275400524
1692741255728505373,8739,1692741255728505373,,5.467069649915734
1692741255733719110,8740,1692741255733719110,,5.865393845097414
1692741255738578319,8741,1692741255738578319,,5.747875411774408
1692741255743716955,8742,1692741255743716955,,5.136203573968009
1692741255748518705,8743,1692741255748518705,,5.14214756509889
1692741255753633499,8744,1692741255753633499,,5.631839493996445
1692741255758555173,8745,1692741255758555173,,5.35138046701312
1692741255763938665,8746,1692741255763938665,,5.2520691862683035
1692741255768603563,8747,1692741255768603563,,5.037177389464479
1692741255773907899,8748,1692741255773907899,,5.6310183775561695
1692741255778668403,8749,1692741255778668403,,4.2428135902106066
1692741255783436775,8750,1692741255783436775,,4.872694754435662
1692741255789329051,8751,1692741255789329051,,5.971102037133154
1692741255793549776,8752,1692741255793549776,,5.462212857883934
1692741255798842191,8753,1692741255798842191,,5.544847749031348
1692741255803603887,8754,1692741255803603887,,6.243823371973904
1692741255808513641,8755,1692741255808513641,,5.826232414391139
1692741255813664436,8756,1692741255813664436,,5.7762089671414945
1692741255818542480,8757,1692741255818542480,,4.965382863074175
1692741255823952198,8758,1692741255823952198,,5.276359055210664
1692741255829605340,8759,1692741255829605340,,5.156930452846138
1692741255833819866,8760,1692741255833819866,,5.488172269810289
1692741255838622570,8761,1692741255838622570,,4.720608552900522
1692741255843824148,8762,1692741255843824148,,5.222388254366339
1692741255848680734,8763,1692741255848680734,,5.4179089347885006
1692741255853769540,8764,1692741255853769540,,5.589037719035435
1692741255858598470,8765,1692741255858598470,,5.430751023270476
1692741255863784551,8766,1692741255863784551,,5.140679245170076
1692741255868762969,8767,1692741255868762969,,4.77917190851826
1692741255873609542,8768,1692741255873609542,,5.328517370589285
1692741255878461360,8769,1692741255878461360,,5.266920902761475
1692741255883533716,8770,1692741255883533716,,5.293275139048396
1692741255888504981,8771,1692741255888504981,,4.94132651583643
1692741255893717050,8772,1692741255893717050,,5.156160159584662
1692741255898499011,8773,1692741255898499011,,5.171595891525742
1692741255903653621,8774,1692741255903653621,,5.270620364529345
1692741255908482074,8775,1692741255908482074,,5.294570906852739
1692741255913626194,8776,1692741255913626194,,5.400196331446831
1692741255919605731,8777,1692741255919605731,,5.261823849195626
1692741255923677682,8778,1692741255923677682,,5.6768694200867715
1692741255928507804,8779,1692741255928507804,,5.427806166445007
1692741255933679819,8780,1692741255933679819,,5.200138539221539
1692741255938466548,8781,1692741255938466548,,5.30622641047806
1692741255945611715,8782,1692741255945611715,,5.524433839540964
1692741255948868036,8783,1692741255948868036,,5.3287642481552355
1692741255953557252,8784,1692741255953557252,,5.694944084581813
1692741255958473205,8785,1692741255958473205,,5.946627576200744
1692741255963570833,8786,1692741255963570833,,5.27600050815667
1692741255968436956,8787,1692741255968436956,,5.778918349156333
1692741255973662376,8788,1692741255973662376,,5.5122813190422635
1692741255978461742,8789,1692741255978461742,,5.000186588186429
1692741255983377456,8790,1692741255983377456,,4.685275538621855
1692741255988796710,8791,1692741255988796710,,5.296815845013134
1692741255993566036,8792,1692741255993566036,,5.860007527872202
1692741255998434782,8793,1692741255998434782,,5.279831778579142
1692741256003576517,8794,1692741256003576517,,5.401464141382403
1692741256008506536,8795,1692741256008506536,,5.165360452457263
1692741256013675212,8796,1692741256013675212,,5.371140468890511
1692741256018502235,8797,1692741256018502235,,4.955849958568699
1692741256023756504,8798,1692741256023756504,,5.45397380331035
1692741256028513908,8799,1692741256028513908,,5.935365786662031
1692741256034423112,8800,1692741256034423112,,5.836611239276365
1692741256038498163,8801,1692741256038498163,,4.771471945706862
1692741256043746471,8802,1692741256043746471,,4.944604022456051
1692741256048484563,8803,1692741256048484563,,5.003983570254553
1692741256053669452,8804,1692741256053669452,,5.420145984123721
1692741256058921575,8805,1692741256058921575,,5.129725765461109
1692741256063661575,8806,1692741256063661575,,5.192841656265124
1692741256068526268,8807,1692741256068526268,,5.211658293483581
1692741256073738813,8808,1692741256073738813,,4.898714418910983
1692741256078538417,8809,1692741256078538417,,4.483188455986941
1692741256083866596,8810,1692741256083866596,,5.8476973299966435
1692741256092207193,8811,1692741256092207193,,4.575973784561627
1692741256093767166,8812,1692741256093767166,,5.659016863421441
1692741256098686933,8813,1692741256098686933,,6.209828814322089
1692741256103863954,8814,1692741256103863954,,4.859128289046549
1692741256108684301,8815,1692741256108684301,,5.768860297872179
1692741256113479852,8816,1692741256113479852,,4.554851718462887
1692741256118794918,8817,1692741256118794918,,5.998483810713207
1692741256124649763,8818,1692741256124649763,,5.777052910769859
1692741256128433465,8819,1692741256128433465,,5.216197516429581
1692741256133734464,8820,1692741256133734464,,5.480599269019191
1692741256138552427,8821,1692741256138552427,,5.13636225039813
1692741256143829107,8822,1692741256143829107,,5.886507242605451
1692741256150368452,8823,1692741256150368452,,5.644310122435059
1692741256153530359,8824,1692741256153530359,,5.3944740281882675
1692741256158474445,8825,1692741256158474445,,5.132071180104256
1692741256163568019,8826,1692741256163568019,,4.633606418435354
1692741256168443918,8827,1692741256168443918,,5.8274414252753175
1692741256173699140,8828,1692741256173699140,,5.647386186047212
1692741256178460359,8829,1692741256178460359,,5.397782516901426
1692741256183653354,8830,1692741256183653354,,5.91124236991583
1692741256188482284,8831,1692741256188482284,,6.358978822949027
1692741256193667888,8832,1692741256193667888,,6.24807114156241
1692741256198496341,8833,1692741256198496341,,6.115918504534433
1692741256203774929,8834,1692741256203774929,,4.470468365312094
1692741256208678960,8835,1692741256208678960,,4.836268915029113
1692741256213416337,8836,1692741256213416337,,5.182038862991158
1692741256218764781,8837,1692741256218764781,,4.391074996417086
1692741256223594665,8838,1692741256223594665,,4.4684900447509674
1692741256228438377,8839,1692741256228438377,,4.59882982994828
1692741256233607530,8840,1692741256233607530,,4.295650982398499
1692741256239202976,8841,1692741256239202976,,4.364642116452183
1692741256243607759,8842,1692741256243607759,,5.7562781490440775
1692741256248466968,8843,1692741256248466968,,5.91135577941371
1692741256253616333,8844,1692741256253616333,,6.076156306735822
1692741256258532285,8845,1692741256258532285,,6.085442433688111
1692741256263810873,8846,1692741256263810873,,3.7761111245446437
1692741256268490552,8847,1692741256268490552,,5.826205331934811
1692741256273966550,8848,1692741256273966550,,4.94807685766416
1692741256278626203,8849,1692741256278626203,,6.00348539697464
1692741256283838510,8850,1692741256283838510,,4.159956961211837
1692741256288617610,8851,1692741256288617610,,6.189896139861628
1692741256293668031,8852,1692741256293668031,,3.5011151189192744
1692741256298539161,8853,1692741256298539161,,5.280719220447628
1692741256304524898,8854,1692741256304524898,,6.432776948538662
1692741256308978796,8855,1692741256308978796,,6.8983529139697275
1692741256313677549,8856,1692741256313677549,,4.124879453481861
1692741256319548368,8857,1692741256319548368,,4.994616460836927
1692741256323573350,8858,1692741256323573350,,6.508800673816644
1692741256329156398,8859,1692741256329156398,,5.446000791503604
1692741256333688259,8860,1692741256333688259,,5.05332613573745
1692741256338604450,8861,1692741256338604450,,4.379447730071582
1692741256343882322,8862,1692741256343882322,,6.866297511908711
1692741256348622083,8863,1692741256348622083,,5.964539034667846
1692741256358622789,8864,1692741256358622789,,5.161772260441611
1692741256360332250,8865,1692741256360332250,,3.8307512061541535
1692741256364446163,8866,1692741256364446163,,3.6123053075207046
1692741256369256019,8867,1692741256369256019,,6.3105707612576385
1692741256373522281,8868,1692741256373522281,,4.671669858198987
1692741256378828287,8869,1692741256378828287,,3.754177196022402
1692741256383804082,8870,1692741256383804082,,5.834204652333234
1692741256388602733,8871,1692741256388602733,,6.358335160657549
1692741256393824815,8872,1692741256393824815,,5.851469824910021
1692741256398541927,8873,1692741256398541927,,5.459630806909657
1692741256403722524,8874,1692741256403722524,,4.241361070296598
1692741256408563375,8875,1692741256408563375,,5.352742108449556
1692741256413580179,8876,1692741256413580179,,6.423951179797903
1692741256418618679,8877,1692741256418618679,,4.830048648912368
1692741256424237728,8878,1692741256424237728,,3.984043413239267
1692741256428538799,8879,1692741256428538799,,6.6215387050998205
1692741256433706283,8880,1692741256433706283,,4.755148675081109
1692741256438536643,8881,1692741256438536643,,6.963013526796448
1692741256445010662,8882,1692741256445010662,,4.827195436505362
1692741256448541641,8883,1692741256448541641,,6.151923760795942
1692741256453629970,8884,1692741256453629970,,4.3851889339696575
1692741256458564281,8885,1692741256458564281,,5.1728815099371905
1692741256463628768,8886,1692741256463628768,,5.805427274803762
1692741256468558549,8887,1692741256468558549,,4.247477992936213
1692741256473736524,8888,1692741256473736524,,3.6147828098694172
1692741256478481769,8889,1692741256478481769,,6.142069058484333
1692741256483615398,8890,1692741256483615398,,6.745477787112485
1692741256488527774,8891,1692741256488527774,,7.09717206830383
1692741256493653535,8892,1692741256493653535,,7.309914782584477
1692741256498567342,8893,1692741256498567342,,5.810795626009882
1692741256503682613,8894,1692741256503682613,,3.8619227475178413
1692741256508541345,8895,1692741256508541345,,5.224341959573671
1692741256513695955,8896,1692741256513695955,,5.426584845098377
1692741256518525362,8897,1692741256518525362,,5.116388110328473
1692741256523713827,8898,1692741256523713827,,6.70596618214787
1692741256528505563,8899,1692741256528505563,,6.9474869790388505
1692741256534066200,8900,1692741256534066200,,4.7535045603629
1692741256538518667,8901,1692741256538518667,,5.572569843123778
1692741256544356822,8902,1692741256544356822,,5.4827924273991195
1692741256548654317,8903,1692741256548654317,,7.2270851196820916
1692741256553493738,8904,1692741256553493738,,4.663576108219126
1692741256560035943,8905,1692741256560035943,,5.871856856696616
1692741256563409090,8906,1692741256563409090,,7.249021677774207
1692741256568761587,8907,1692741256568761587,,5.027642416394134
1692741256573561668,8908,1692741256573561668,,5.935264129775729
1692741256578429698,8909,1692741256578429698,,4.714850203896156
1692741256583598852,8910,1692741256583598852,,3.676769456019578
1692741256588484287,8911,1692741256588484287,,5.5190917912916495
1692741256593721389,8912,1692741256593721389,,5.2340327422209185
1692741256598839521,8913,1692741256598839521,,5.920947575322478
1692741256603643655,8914,1692741256603643655,,4.083799241600347
1692741256608522415,8915,1692741256608522415,,4.307311507841188
1692741256613801240,8916,1692741256613801240,,6.335512616030313
1692741256618605375,8917,1692741256618605375,,4.441233553478759
1692741256623880624,8918,1692741256623880624,,5.6690622637521315
1692741256628553628,8919,1692741256628553628,,3.6478960835889023
1692741256633734941,8920,1692741256633734941,,4.988025688992665
1692741256638580799,8921,1692741256638580799,,7.0749049411325045
1692741256643810033,8922,1692741256643810033,,6.284090019676318
1692741256648860692,8923,1692741256648860692,,3.8843428605498707
1692741256653737306,8924,1692741256653737306,,6.426062801910981
1692741256658662080,8925,1692741256658662080,,6.334562168017889
1692741256663788557,8926,1692741256663788557,,5.625169777458727
1692741256668608188,8927,1692741256668608188,,4.556123248396347
1692741256673838376,8928,1692741256673838376,,5.7120308144702845
1692741256678621530,8929,1692741256678621530,,7.176557733765759
1692741256683792591,8930,1692741256683792591,,5.146808137269812
1692741256688567399,8931,1692741256688567399,,6.779956182154797
1692741256693756818,8932,1692741256693756818,,6.550383568564167
1692741256698552846,8933,1692741256698552846,,5.4360879947203475
1692741256703742265,8934,1692741256703742265,,3.976356152666102
1692741256708606004,8935,1692741256708606004,,6.889381017574175
1692741256713707447,8936,1692741256713707447,,4.579946552454829
1692741256719110250,8937,1692741256719110250,,4.83229759389651
1692741256723776578,8938,1692741256723776578,,3.749686269402615
1692741256728579044,8939,1692741256728579044,,5.463098680028196
1692741256733762025,8940,1692741256733762025,,5.839296463138186
1692741256738675117,8941,1692741256738675117,,3.4723905509556743
1692741256743861436,8942,1692741256743861436,,5.741281488477437
1692741256748560428,8943,1692741256748560428,,5.613121377271713
1692741256753747463,8944,1692741256753747463,,5.2530545578070225
1692741256758566379,8945,1692741256758566379,,3.821592674120291
1692741256764836311,8946,1692741256764836311,,6.514584335859307
1692741256769018411,8947,1692741256769018411,,5.270268605069314
1692741256773662805,8948,1692741256773662805,,6.592930588692772
1692741256778519630,8949,1692741256778519630,,6.740233471557458
1692741256783638477,8950,1692741256783638477,,3.5745270516285617
1692741256788507938,8951,1692741256788507938,,7.326815420546838
1692741256793621301,8952,1692741256793621301,,7.569939378868896
1692741256798461437,8953,1692741256798461437,,4.15131230874668
1692741256803637027,8954,1692741256803637027,,4.272716264084388
1692741256808505535,8955,1692741256808505535,,7.274066639043614
1692741256813639640,8956,1692741256813639640,,6.132335955958942
1692741256818485736,8957,1692741256818485736,,6.581757773657824
1692741256823701858,8958,1692741256823701858,,6.035691753683086
1692741256828500747,8959,1692741256828500747,,5.47504931655838
1692741256833695888,8960,1692741256833695888,,6.679512810358421
1692741256838561534,8961,1692741256838561534,,6.683481380161218
1692741256843797445,8962,1692741256843797445,,6.181785317378615
1692741256848581552,8963,1692741256848581552,,4.21993751706379
1692741256853771924,8964,1692741256853771924,,5.191739661549892
1692741256858616590,8965,1692741256858616590,,5.101415482945879
1692741256863831281,8966,1692741256863831281,,6.555562368219388
1692741256868602514,8967,1692741256868602514,,5.3272937525406014
1692741256873487710,8968,1692741256873487710,,5.145965576562218
1692741256878737449,8969,1692741256878737449,,4.713583864662615
1692741256883521556,8970,1692741256883521556,,7.6234196576361075
1692741256888439655,8971,1692741256888439655,,3.0333651467930074
1692741256893943548,8972,1692741256893943548,,5.925557861341322
1692741256898439168,8973,1692741256898439168,,6.271743719817654
1692741256903851747,8974,1692741256903851747,,3.1050767440715537
1692741256910155773,8975,1692741256910155773,,2.7483418943520403
1692741256913652896,8976,1692741256913652896,,6.3743942398172235
1692741256918797731,8977,1692741256918797731,,5.616302420336534
1692741256923618316,8978,1692741256923618316,,5.7938772047884255
1692741256928417444,8979,1692741256928417444,,6.440676726301258
1692741256933578491,8980,1692741256933578491,,7.834911831813185
1692741256938490867,8981,1692741256938490867,,7.758266421298072
1692741256943712472,8982,1692741256943712472,,5.588788764763211
1692741256950603961,8983,1692741256950603961,,7.570522629119943
1692741256953714609,8984,1692741256953714609,,6.701411056484812
1692741256966853857,8986,1692741256966853857,,7.133322453065993
1692741256971529006,8987,1692741256971529006,,6.877796415872865
1692741256973980426,8988,1692741256973980426,,5.543810020729996
1692741256978559732,8989,1692741256978559732,,6.131418569887111
1692741256983894348,8990,1692741256983894348,,7.485520616913058
1692741256988651275,8991,1692741256988651275,,3.943765643117256
1692741256993840694,8992,1692741256993840694,,6.396723095628432
1692741256998825788,8993,1692741256998825788,,5.819398806054701
1692741257004254579,8994,1692741257004254579,,3.3014831842891743
1692741257009609937,8995,1692741257009609937,,6.746527157316557
1692741257014653682,8996,1692741257014653682,,3.280130630220226
1692741257018777847,8997,1692741257018777847,,7.657208678234199
1692741257024584054,8998,1692741257024584054,,5.137551246406216
1692741257028663158,8999,1692741257028663158,,4.74666826545619
1692741257033925533,9000,1692741257033925533,,2.8600678891145552
1692741257039113283,9001,1692741257039113283,,4.673260835568799
1692741257043982267,9002,1692741257043982267,,6.853473030972331
1692741257048794507,9003,1692741257048794507,,5.7061024283293245
1692741257053895235,9004,1692741257053895235,,4.805763547561758
1692741257058708906,9005,1692741257058708906,,6.71696091976424
1692741257063804388,9006,1692741257063804388,,5.4419081550014985
1692741257068861484,9007,1692741257068861484,,3.5272746560240567
1692741257073735475,9008,1692741257073735475,,6.447946892566579
1692741257078970670,9009,1692741257078970670,,5.691635167713691
1692741257083702564,9010,1692741257083702564,,5.1249877695527415
1692741257088834285,9011,1692741257088834285,,4.136007831961501
1692741257093729972,9012,1692741257093729972,,5.178506255893206
1692741257098894357,9013,1692741257098894357,,5.273715779404048
1692741257103765726,9014,1692741257103765726,,5.514819256110763
1692741257109058618,9015,1692741257109058618,,6.517223357127468
1692741257113634109,9016,1692741257113634109,,5.449493513332747
1692741257119274139,9017,1692741257119274139,,4.724872086400006
1692741257123703718,9018,1692741257123703718,,4.517007480001168
1692741257128520250,9019,1692741257128520250,,5.435824483666525
1692741257133702993,9020,1692741257133702993,,4.968733620874394
1692741257140305995,9021,1692741257140305995,,5.394043278399244
1692741257144165039,9022,1692741257144165039,,4.984942011249937
1692741257148600578,9023,1692741257148600578,,6.03811157908227
1692741257153840780,9024,1692741257153840780,,4.656198160842311
1692741257158693075,9025,1692741257158693075,,6.761142523387227
1692741257163903951,9026,1692741257163903951,,5.060762726880017
1692741257169063329,9027,1692741257169063329,,5.660173775491256
1692741257174525260,9028,1692741257174525260,,4.752084323042943
1692741257178665637,9029,1692741257178665637,,5.489327235995262
1692741257183426618,9030,1692741257183426618,,4.851311812876171
1692741257189524888,9031,1692741257189524888,,5.852181741986029
1692741257193581819,9032,1692741257193581819,,4.487585907947982
1692741257198482751,9033,1692741257198482751,,4.450813646834166
1692741257203655958,9034,1692741257203655958,,5.433643225396359
1692741257208508968,9035,1692741257208508968,,5.4803161565769125
1692741257213689088,9036,1692741257213689088,,5.0776810667792045
1692741257218530893,9037,1692741257218530893,,4.487468752410184
1692741257223706722,9038,1692741257223706722,,4.973276914594221
1692741257228508949,9039,1692741257228508949,,4.692772661050481
1692741257233698368,9040,1692741257233698368,,6.697163276670999
1692741257238539934,9041,1692741257238539934,,5.544958233186545
1692741257243763685,9042,1692741257243763685,,5.053911669955721
1692741257248566627,9043,1692741257248566627,,5.398666835180683
1692741257253710985,9044,1692741257253710985,,5.161384217429165
1692741257258542060,9045,1692741257258542060,,4.94130534250632
1692741257263689041,9046,1692741257263689041,,5.1734161479012535
1692741257268564224,9047,1692741257268564224,,5.70526387958785
1692741257273747205,9048,1692741257273747205,,5.058055477514519
1692741257278504848,9049,1692741257278504848,,4.921303949786117
1692741257283675193,9050,1692741257283675193,,4.782933901866549
1692741257288529634,9051,1692741257288529634,,5.711979724237479
1692741257293707370,9052,1692741257293707370,,5.470855150891752
1692741257298506975,9053,1692741257298506975,,4.900400981660123
1692741257303720474,9054,1692741257303720474,,4.184444635862992
1692741257308519601,9055,1692741257308519601,,5.885052482194955
1692741257313694000,9056,1692741257313694000,,5.641005780886197
1692741257318520545,9057,1692741257318520545,,4.807031493031348
1692741257323771238,9058,1692741257323771238,,6.327912868541693
1692741257328508138,9059,1692741257328508138,,5.91556681618652
1692741257333632469,9060,1692741257333632469,,6.645135385976901
1692741257338501214,9061,1692741257338501214,,5.843926359661334
1692741257343704462,9062,1692741257343704462,,5.815887148770631
1692741257348801851,9063,1692741257348801851,,5.159910750313487
1692741257353691339,9064,1692741257353691339,,5.061011499680746
1692741257358601570,9065,1692741257358601570,,4.919010227363281
1692741257364388465,9066,1692741257364388465,,4.874501765155947
1692741257368986606,9067,1692741257368986606,,5.425032684771447
1692741257373468875,9068,1692741257373468875,,6.168646287338157
1692741257379142284,9069,1692741257379142284,,5.017158695489946
1692741257383482933,9070,1692741257383482933,,5.653188691025706
1692741257388392448,9071,1692741257388392448,,5.20789104832526
1692741257396673679,9072,1692741257396673679,,5.332429342728486
1692741257398838281,9073,1692741257398838281,,6.221028772623584
1692741257403607606,9074,1692741257403607606,,5.32750042085846
1692741257408942937,9075,1692741257408942937,,5.179064826144298
1692741257413581371,9076,1692741257413581371,,5.606971319569087
1692741257418488740,9077,1692741257418488740,,5.562731458532512
1692741257423720359,9078,1692741257423720359,,5.343201630465577
1692741257428525924,9079,1692741257428525924,,4.847066096553835
1692741257433791637,9080,1692741257433791637,,5.739512191382084
1692741257438594341,9081,1692741257438594341,,5.69320641940734
1692741257443823575,9082,1692741257443823575,,6.355223306754792
1692741257448564291,9083,1692741257448564291,,5.562708335303845
1692741257456594228,9084,1692741257456594228,,5.419590489286091
1692741257458714962,9085,1692741257458714962,,5.497892540891828
1692741257463535785,9086,1692741257463535785,,5.807324074843621
1692741257468403816,9087,1692741257468403816,,5.451213443033866
1692741257473682880,9088,1692741257473682880,,5.3187312685733215
1692741257478474855,9089,1692741257478474855,,4.958075091485102
1692741257483565092,9090,1692741257483565092,,5.772715789197442
1692741257488467693,9091,1692741257488467693,,5.745958421519605
1692741257493659973,9092,1692741257493659973,,4.614895886453426
1692741257498449563,9093,1692741257498449563,,4.821412318018368
1692741257503698348,9094,1692741257503698348,,5.243752897789552
1692741257508502960,9095,1692741257508502960,,5.415405175824693
1692741257513619661,9096,1692741257513619661,,5.860095783198546
1692741257518467903,9097,1692741257518467903,,5.288444380545096
1692741257523753643,9098,1692741257523753643,,5.709423831555719
1692741257528538227,9099,1692741257528538227,,6.049072319095456
1692741257533673524,9100,1692741257533673524,,5.514265730568696
1692741257538545131,9101,1692741257538545131,,4.902126733133667
1692741257543770074,9102,1692741257543770074,,5.999823337184036
1692741257548531532,9103,1692741257548531532,,5.0797384667568215
1692741257553738594,9104,1692741257553738594,,5.4146802637855735
1692741257559065103,9105,1692741257559065103,,5.905138764515843
1692741257563901424,9106,1692741257563901424,,4.808358686011359
1692741257568449735,9107,1692741257568449735,,4.670326131685666
1692741257573673009,9108,1692741257573673009,,5.442654221955974
1692741257578450441,9109,1692741257578450441,,5.281032112930347
1692741257584032535,9110,1692741257584032535,,4.88115310896774
1692741257588475227,9111,1692741257588475227,,5.358418854714112
1692741257593683481,9112,1692741257593683481,,5.88760944357192
1692741257598492145,9113,1692741257598492145,,5.025113494180393
1692741257603687524,9114,1692741257603687524,,5.1248332204189095
1692741257608534336,9115,1692741257608534336,,5.868340843169755
1692741257613702297,9116,1692741257613702297,,5.569964745533393
1692741257618618249,9117,1692741257618618249,,5.195712202114012
1692741257623862266,9118,1692741257623862266,,4.907724119400089
1692741257628613948,9119,1692741257628613948,,5.235671929248403
1692741257633417129,9120,1692741257633417129,,5.394976136304376
1692741257638768672,9121,1692741257638768672,,5.2260284308286815
1692741257643675088,9122,1692741257643675088,,5.06116877432665
1692741257648774623,9123,1692741257648774623,,5.585119214999841
1692741257653413057,9124,1692741257653413057,,5.164763428866025
1692741257660380125,9125,1692741257660380125,,5.213384300826935
1692741257663528680,9126,1692741257663528680,,5.132628820859863
1692741257668408870,9127,1692741257668408870,,5.125773597797947
1692741257673627138,9128,1692741257673627138,,5.546497937636578
1692741257679077625,9129,1692741257679077625,,5.000256840039082
1692741257683409690,9130,1692741257683409690,,5.325233879147211
1692741257688741445,9131,1692741257688741445,,5.886183439628762
1692741257693501234,9132,1692741257693501234,,5.45699828475051
1692741257698434829,9133,1692741257698434829,,4.826437667300381
1692741257703840255,9134,1692741257703840255,,5.357478987859764
1692741257708643436,9135,1692741257708643436,,5.500233413032748
1692741257713768720,9136,1692741257713768720,,4.153420675666038
1692741257718562364,9137,1692741257718562364,,5.348587954440067
1692741257723808288,9138,1692741257723808288,,5.5464492567381285
1692741257728675127,9139,1692741257728675127,,6.1076480507622115
1692741257733753442,9140,1692741257733753442,,5.7900863829286315
1692741257738612174,9141,1692741257738612174,,5.464587063801911
1692741257743778228,9142,1692741257743778228,,5.33702125957672
1692741257748544454,9143,1692741257748544454,,5.084167852222101
1692741257753703832,9144,1692741257753703832,,5.047142187939973
1692741257758539199,9145,1692741257758539199,,5.656700564870889
1692741257763687849,9146,1692741257763687849,,4.69174458930183
1692741257768697023,9147,1692741257768697023,,5.438600184799607
1692741257773848295,9148,1692741257773848295,,6.08229186877681
1692741257778567075,9149,1692741257778567075,,5.540158376127703
1692741257783690690,9150,1692741257783690690,,5.102269640576566
1692741257788721323,9151,1692741257788721323,,4.773247238933536
1692741257793942213,9152,1692741257793942213,,5.2316273242135605
1692741257798759222,9153,1692741257798759222,,5.419691483074608
1692741257803516626,9154,1692741257803516626,,5.531104073118976
1692741257808446407,9155,1692741257808446407,,5.4016966988006185
1692741257813571214,9156,1692741257813571214,,5.20733556708177
1692741257818465471,9157,1692741257818465471,,5.34557717752971
1692741257823702573,9158,1692741257823702573,,4.794206504078191
1692741257828529357,9159,1692741257828529357,,5.765414041206592
1692741257833660602,9160,1692741257833660602,,5.153940006969055
1692741257838509798,9161,1692741257838509798,,6.107035882744315
1692741257843852519,9162,1692741257843852519,,6.074159406585599
1692741257848425626,9163,1692741257848425626,,4.915090758458694
1692741257853611469,9164,1692741257853611469,,4.730157918631986
1692741257858515262,9165,1692741257858515262,,5.069496258249779
1692741257865245342,9166,1692741257865245342,,5.64914231144778
1692741257868850708,9167,1692741257868850708,,4.970317277380735
1692741257873640775,9168,1692741257873640775,,5.589214967136245
1692741257878444194,9169,1692741257878444194,,5.603967442007097
1692741257883625507,9170,1692741257883625507,,5.68184264137372
1692741257888493537,9171,1692741257888493537,,5.268991558198679
1692741257893845081,9172,1692741257893845081,,4.876921370370118
1692741257898675918,9173,1692741257898675918,,5.518390018435121
1692741257903852939,9174,1692741257903852939,,5.587432616819352
1692741257908747196,9175,1692741257908747196,,5.5068977111848785
1692741257913527488,9176,1692741257913527488,,5.780019960657338
1692741257918879508,9177,1692741257918879508,,5.043318552044949
1692741257923658847,9178,1692741257923658847,,5.877097925631201
1692741257928500652,9179,1692741257928500652,,5.821116396402552
1692741257933713197,9180,1692741257933713197,,4.90672085912977
1692741257938413858,9181,1692741257938413858,,5.466331198262889
1692741257943781137,9182,1692741257943781137,,5.862203458780079
1692741257948902845,9183,1692741257948902845,,5.39956252728496
1692741257953651189,9184,1692741257953651189,,4.924911078321986
1692741257958557367,9185,1692741257958557367,,5.10753776874359
1692741257963684082,9186,1692741257963684082,,4.9526200488736585
1692741257968480825,9187,1692741257968480825,,5.408615750780503
1692741257973723649,9188,1692741257973723649,,5.7239838527433795
1692741257978492021,9189,1692741257978492021,,4.768673276463427
1692741257983678579,9190,1692741257983678579,,5.507625131865696
1692741257988808393,9191,1692741257988808393,,5.948091363036776
1692741257993803977,9192,1692741257993803977,,5.3656648029692935
1692741257998642206,9193,1692741257998642206,,5.430298894117576
1692741258003808975,9194,1692741258003808975,,5.747384352122027
1692741258008659601,9195,1692741258008659601,,5.1169254662496435
1692741258013428926,9196,1692741258013428926,,5.304265704196176
1692741258018885374,9197,1692741258018885374,,5.431389577365239
1692741258023595333,9198,1692741258023595333,,5.360156214488016
1692741258028489828,9199,1692741258028489828,,5.428846302587952
1692741258033593416,9200,1692741258033593416,,4.660285963157626
1692741258038454532,9201,1692741258038454532,,4.9794643542338095
1692741258043724060,9202,1692741258043724060,,4.913658606942775
1692741258048510789,9203,1692741258048510789,,4.8037510942237045
1692741258053647518,9204,1692741258053647518,,5.452715409168703
1692741258058529376,9205,1692741258058529376,,5.227002812838163
1692741258063642024,9206,1692741258063642024,,6.210599268773812
1692741258069912910,9207,1692741258069912910,,5.640309032286519
1692741258073548793,9208,1692741258073548793,,6.260576538406252
1692741258078467845,9209,1692741258078467845,,4.949933354125583
1692741258083578586,9210,1692741258083578586,,4.979152867304004
1692741258088461875,9211,1692741258088461875,,5.283676148373012
1692741258093689680,9212,1692741258093689680,,4.700075597129869
1692741258098500251,9213,1692741258098500251,,5.213506886894182
1692741258103664636,9214,1692741258103664636,,5.868425915997588
1692741258108564376,9215,1692741258108564376,,5.490950356101807
1692741258113732576,9216,1692741258113732576,,6.073335500395664
1692741258118527650,9217,1692741258118527650,,5.171488387117418
1692741258123760938,9218,1692741258123760938,,5.276980994663397
1692741258128538846,9219,1692741258128538846,,4.930096502392156
1692741258133474826,9220,1692741258133474826,,5.5641336315042125
1692741258138410568,9221,1692741258138410568,,4.591921913006164
1692741258143583536,9222,1692741258143583536,,4.561904354301995
1692741258152260065,9223,1692741258152260065,,6.059475560731788
1692741258153439760,9224,1692741258153439760,,6.390344448720136
1692741258158443212,9225,1692741258158443212,,4.596016170276873
1692741258163546800,9226,1692741258163546800,,5.268307935605944
1692741258169136524,9227,1692741258169136524,,4.740955665272912
1692741258173745632,9228,1692741258173745632,,4.826370052965175
1692741258178510665,9229,1692741258178510665,,3.035198091085603
1692741258184906482,9230,1692741258184906482,,5.989733731756394
1692741258188464641,9231,1692741258188464641,,4.480567511740198
1692741258193630933,9232,1692741258193630933,,4.000418251742522
1692741258198523044,9233,1692741258198523044,,4.106978898474538
1692741258203899621,9234,1692741258203899621,,5.142779057365251
1692741258208457708,9235,1692741258208457708,,4.945499605483037
1692741258213582515,9236,1692741258213582515,,4.662034693938903
1692741258218882799,9237,1692741258218882799,,5.627657394128323
1692741258223614215,9238,1692741258223614215,,3.8693028720886535
1692741258233136892,9239,1692741258233136892,,7.193801563384998
1692741258233618497,9240,1692741258233618497,,5.6454433292412585
1692741258238513469,9241,1692741258238513469,,6.319563323615016
1692741258243665695,9242,1692741258243665695,,6.530434911590838
1692741258248544931,9243,1692741258248544931,,6.304686768451953
1692741258253708362,9244,1692741258253708362,,4.206827535946654
1692741258258521080,9245,1692741258258521080,,5.274117234787129
1692741258263808250,9246,1692741258263808250,,4.276582721801873
1692741258268577814,9247,1692741258268577814,,5.438383819909562
1692741258275007963,9248,1692741258275007963,,5.811114395542208
1692741258278548955,9249,1692741258278548955,,6.564489066935241
1692741258283787727,9250,1692741258283787727,,7.189695529868607
1692741258288602113,9251,1692741258288602113,,5.626036160067033
1692741258293378353,9252,1692741258293378353,,6.028004301904886
1692741258298636913,9253,1692741258298636913,,3.549636689153994
1692741258303496360,9254,1692741258303496360,,4.553222883104656
1692741258308842420,9255,1692741258308842420,,2.6779512334953
1692741258313483476,9256,1692741258313483476,,5.26938389303497
1692741258318411827,9257,1692741258318411827,,4.550709171889703
1692741258323646545,9258,1692741258323646545,,4.886837273719764
1692741258328476190,9259,1692741258328476190,,6.329007139806477
1692741258333673954,9260,1692741258333673954,,7.242054881943595
1692741258338505744,9261,1692741258338505744,,7.265450820142456
1692741258343710899,9262,1692741258343710899,,4.380770214942688
1692741258348743915,9263,1692741258348743915,,3.2354256530081846
1692741258353787899,9264,1692741258353787899,,7.526834934240371
1692741258358485221,9265,1692741258358485221,,7.191059949440725
1692741258363606691,9266,1692741258363606691,,4.036116610708081
1692741258368762731,9267,1692741258368762731,,5.8844703489039105
1692741258373511314,9268,1692741258373511314,,4.180831262273315
1692741258378417491,9269,1692741258378417491,,3.3275170615687593
1692741258383622407,9270,1692741258383622407,,7.569693591192876
1692741258389853954,9271,1692741258389853954,,3.0468978217265303
1692741258393606662,9272,1692741258393606662,,6.1742167481609505
1692741258398485422,9273,1692741258398485422,,4.6928284582164705
1692741258403618812,9274,1692741258403618812,,4.5392526464579905
1692741258408677339,9275,1692741258408677339,,5.342904071132606
1692741258413920164,9276,1692741258413920164,,5.13374208350265
1692741258418672323,9277,1692741258418672323,,7.683145409850391
1692741258423541307,9278,1692741258423541307,,6.906288831798537
1692741258428781032,9279,1692741258428781032,,2.7171531968964895
1692741258433563709,9280,1692741258433563709,,6.549478990631736
1692741258438520669,9281,1692741258438520669,,2.5003215711752333
1692741258443663835,9282,1692741258443663835,,6.810047000020099
1692741258448507070,9283,1692741258448507070,,3.0697220016079023
1692741258453690290,9284,1692741258453690290,,3.0670378072376185
1692741258458550930,9285,1692741258458550930,,2.964174448808218
1692741258463633298,9286,1692741258463633298,,2.9726397930541997
1692741258468831539,9287,1692741258468831539,,6.6729381041879146
1692741258473603010,9288,1692741258473603010,,7.698266832912511
1692741258479468107,9289,1692741258479468107,,7.661261484097683
1692741258483622550,9290,1692741258483622550,,4.411730248020491
1692741258489170312,9291,1692741258489170312,,6.623030172590819
1692741258493813037,9292,1692741258493813037,,5.931003421168552
1692741258498865604,9293,1692741258498865604,,3.170767874728997
1692741258505717039,9294,1692741258505717039,,5.270681717894624
1692741258508692979,9295,1692741258508692979,,7.945810180867686
1692741258513469934,9296,1692741258513469934,,4.533295925219821
1692741258518332242,9297,1692741258518332242,,3.7749936841931193
1692741258523918390,9298,1692741258523918390,,2.626702844470433
1692741258528497219,9299,1692741258528497219,,7.696624460029832
1692741258533713817,9300,1692741258533713817,,7.391610401210686
1692741258538738012,9301,1692741258538738012,,6.813723201020282
1692741258543707132,9302,1692741258543707132,,6.655825292315461
1692741258548556566,9303,1692741258548556566,,7.7491868679254505
1692741258553746223,9304,1692741258553746223,,6.6221443529203965
1692741258558523893,9305,1692741258558523893,,3.8224969933842496
1692741258563747406,9306,1692741258563747406,,6.183202628056061
1692741258568551778,9307,1692741258568551778,,2.9010992114544707
1692741258573798179,9308,1692741258573798179,,3.546306347457979
1692741258578572273,9309,1692741258578572273,,5.635500157447879
1692741258583371400,9310,1692741258583371400,,7.714344938098782
1692741258588504552,9311,1692741258588504552,,3.9337153409616543
1692741258594506502,9312,1692741258594506502,,2.9366873454524827
1692741258598467588,9313,1692741258598467588,,3.5063102727751883
1692741258603653669,9314,1692741258603653669,,6.130541406943915
1692741258608510017,9315,1692741258608510017,,4.099520465901225
1692741258613655090,9316,1692741258613655090,,5.718960707713646
1692741258618511438,9317,1692741258618511438,,5.099150276889689
1692741258623762369,9318,1692741258623762369,,2.5632333454268874
1692741258628514289,9319,1692741258628514289,,4.988252593333323
1692741258633713483,9320,1692741258633713483,,3.6881527546978212
1692741258638557910,9321,1692741258638557910,,4.068179023760093
1692741258643770933,9322,1692741258643770933,,6.132566708040882
1692741258648566246,9323,1692741258648566246,,5.047851624346813
1692741258653801679,9324,1692741258653801679,,2.8435750028951343
1692741258658629179,9325,1692741258658629179,,6.0923829937612055
1692741258663387298,9326,1692741258663387298,,6.908912605341759
1692741258668686628,9327,1692741258668686628,,7.8942029085777925
1692741258673523902,9328,1692741258673523902,,5.488210263248877
1692741258678409814,9329,1692741258678409814,,6.68563506535144
1692741258684283733,9330,1692741258684283733,,3.3685468294878467
1692741258688410997,9331,1692741258688410997,,5.898157914426446
1692741258693657636,9332,1692741258693657636,,6.931550243767525
1692741258699160575,9333,1692741258699160575,,6.871951879185614
1692741258703404426,9334,1692741258703404426,,6.5775890059377
1692741258710423707,9335,1692741258710423707,,5.3450696719255975
1692741258713853120,9336,1692741258713853120,,5.391715647175072
1692741258718587636,9337,1692741258718587636,,2.6568245717004797
1692741258723388195,9338,1692741258723388195,,6.7511249863472385
1692741258728669404,9339,1692741258728669404,,6.395621506066114
1692741258733515739,9340,1692741258733515739,,4.63624756254512
1692741258738358259,9341,1692741258738358259,,4.690836871221828
1692741258743595838,9342,1692741258743595838,,3.5250330838699853
1692741258748456239,9343,1692741258748456239,,3.4772844959840703
1692741258753524780,9344,1692741258753524780,,2.325549576653885
1692741258758885622,9345,1692741258758885622,,4.346384183566144
1692741258763653039,9346,1692741258763653039,,2.4200644692850126
1692741258768478155,9347,1692741258768478155,,6.381497824702428
1692741258773780584,9348,1692741258773780584,,7.523591971594063
1692741258778551101,9349,1692741258778551101,,6.108538706619551
1692741258783676624,9350,1692741258783676624,,4.885017983658434
1692741258788467884,9351,1692741258788467884,,3.4960269598835962
1692741258793667793,9352,1692741258793667793,,2.2754363142986174
1692741258799364805,9353,1692741258799364805,,3.4455073517423203
1692741258803631544,9354,1692741258803631544,,2.2609218356110854
1692741258808538436,9355,1692741258808538436,,4.028625929346708
1692741258813347816,9356,1692741258813347816,,5.162323222221834
1692741258818654537,9357,1692741258818654537,,5.368615919983055
1692741258823516845,9358,1692741258823516845,,5.887299024796213
1692741258828368902,9359,1692741258828368902,,5.305357058764931
1692741258833497762,9360,1692741258833497762,,5.310636759095308
1692741258838379621,9361,1692741258838379621,,4.879718066107502
1692741258843615770,9362,1692741258843615770,,7.290857778013224
1692741258848509073,9363,1692741258848509073,,5.385296182993357
1692741258853637695,9364,1692741258853637695,,4.217785944505319
1692741258858562707,9365,1692741258858562707,,7.304944217695326
1692741258863710880,9366,1692741258863710880,,3.932172670264518
1692741258868504047,9367,1692741258868504047,,6.15240765853848
1692741258873737812,9368,1692741258873737812,,4.564187711763267
1692741258878511905,9369,1692741258878511905,,4.90393207577949
1692741258883679389,9370,1692741258883679389,,6.235492151994174
1692741258889134407,9371,1692741258889134407,,5.083893750578623
1692741258893669366,9372,1692741258893669366,,6.128721606340071
1692741258898541450,9373,1692741258898541450,,5.665521977557507
1692741258903704166,9374,1692741258903704166,,5.089570487103688
1692741258908652544,9375,1692741258908652544,,7.158405213145332
1692741258915148258,9376,1692741258915148258,,5.30863977254799
1692741258918589115,9377,1692741258918589115,,3.8849277418864645
1692741258923408269,9378,1692741258923408269,,5.683744551110051
1692741258928441286,9379,1692741258928441286,,5.295146376433806
1692741258933549165,9380,1692741258933549165,,5.3273064694697325
1692741258938471078,9381,1692741258938471078,,4.504120519470734
1692741258943614721,9382,1692741258943614721,,5.8048979275921875
1692741258948409795,9383,1692741258948409795,,4.316548209997624
1692741258953639507,9384,1692741258953639507,,4.849335996433648
1692741258958490610,9385,1692741258958490610,,5.198662915317685
1692741258963629007,9386,1692741258963629007,,6.252641197046993
1692741258968481302,9387,1692741258968481302,,4.1538359149928
1692741258973700284,9388,1692741258973700284,,5.395769239997117
1692741258979304552,9389,1692741258979304552,,5.80549688513999
1692741258983628511,9390,1692741258983628511,,5.55153652067525
1692741258988593101,9391,1692741258988593101,,5.789445224225936
1692741258993689298,9392,1692741258993689298,,6.141861296198868
1692741258998500108,9393,1692741258998500108,,4.300756676968754
1692741259004157543,9394,1692741259004157543,,3.6406298899079697
1692741259008528470,9395,1692741259008528470,,4.69910586298361
1692741259013726234,9396,1692741259013726234,,4.946015785846397
1692741259018536329,9397,1692741259018536329,,6.14270341296519
1692741259023364067,9398,1692741259023364067,,5.308625067672373
1692741259029219388,9399,1692741259029219388,,4.770960043505795
1692741259033334970,9400,1692741259033334970,,5.883984832413086
1692741259038669109,9401,1692741259038669109,,4.19906448049224
1692741259043761968,9402,1692741259043761968,,4.780390744730334
1692741259048547029,9403,1692741259048547029,,4.469309195398644
1692741259053326606,9404,1692741259053326606,,4.856003663244442
1692741259058573007,9405,1692741259058573007,,4.108105712958255
1692741259063437223,9406,1692741259063437223,,5.936533353396603
1692741259068690538,9407,1692741259068690538,,4.36584118189066
1692741259073445320,9408,1692741259073445320,,5.1451360944998035
1692741259078323602,9409,1692741259078323602,,5.072459082916201
1692741259083498477,9410,1692741259083498477,,5.713433234274791
1692741259088346958,9411,1692741259088346958,,4.520400244435234
1692741259094059944,9412,1692741259094059944,,5.079051148025799
1692741259098483800,9413,1692741259098483800,,4.997457136682772
1692741259103610992,9414,1692741259103610992,,4.735096100640547
1692741259108553171,9415,1692741259108553171,,5.492753136474459
1692741259113614320,9416,1692741259113614320,,4.53370500511678
1692741259119950532,9417,1692741259119950532,,5.712827855091623
1692741259123504638,9418,1692741259123504638,,5.369900615218486
1692741259128403902,9419,1692741259128403902,,5.515094929963837
1692741259133531093,9420,1692741259133531093,,5.6421854926590065
1692741259138400793,9421,1692741259138400793,,5.573205910108506
1692741259143657207,9422,1692741259143657207,,5.345146233496447
1692741259148419618,9423,1692741259148419618,,6.45947054969556
1692741259153639078,9424,1692741259153639078,,6.130340774116375
1692741259158475875,9425,1692741259158475875,,5.724283947257449
1692741259163648366,9426,1692741259163648366,,5.44873110812182
1692741259168512582,9427,1692741259168512582,,4.888867576910961
1692741259173718929,9428,1692741259173718929,,5.4343486495100946
1692741259178530454,9429,1692741259178530454,,5.619278429476016
1692741259183740615,9430,1692741259183740615,,5.7551283746315285
1692741259192458152,9431,1692741259192458152,,5.96045225541265
1692741259193538188,9432,1692741259193538188,,5.1847253731215
1692741259198532104,9433,1692741259198532104,,4.257585715164354
1692741259203659057,9434,1692741259203659057,,5.764093053269336
1692741259208890438,9435,1692741259208890438,,5.060477455097956
1692741259213704109,9436,1692741259213704109,,5.78966017584723
1692741259218476295,9437,1692741259218476295,,4.3163610739511675
1692741259223880052,9438,1692741259223880052,,5.523905186274703
1692741259228590250,9439,1692741259228590250,,5.981772026265675
1692741259233335256,9440,1692741259233335256,,5.586637886450619
1692741259238692522,9441,1692741259238692522,,5.6219150459068
1692741259243454217,9442,1692741259243454217,,5.389005158031635
1692741259248331785,9443,1692741259248331785,,5.720262815561455
1692741259253497362,9444,1692741259253497362,,5.201647709431527
1692741259258457660,9445,1692741259258457660,,5.060647483044747
1692741259263892650,9446,1692741259263892650,,5.490940153379138
1692741259272889137,9447,1692741259272889137,,4.500527330979886
1692741259273705482,9448,1692741259273705482,,5.358306710533859
1692741259278584718,9449,1692741259278584718,,5.705386406090849
1692741259283328056,9450,1692741259283328056,,4.516423239741149
1692741259288628339,9451,1692741259288628339,,5.626473816209908
1692741259293397188,9452,1692741259293397188,,5.0856654273421045
1692741259298718214,9453,1692741259298718214,,6.197470872698233
1692741259303440570,9454,1692741259303440570,,5.518863664088328
1692741259308418512,9455,1692741259308418512,,5.6012831597127875
1692741259313542604,9456,1692741259313542604,,5.153553512442489
1692741259318425416,9457,1692741259318425416,,5.499383360083042
1692741259324911117,9458,1692741259324911117,,5.18729742733885
1692741259328434467,9459,1692741259328434467,,5.210603010295354
1692741259333608150,9460,1692741259333608150,,5.407988121482072
1692741259338889360,9461,1692741259338889360,,5.487064704616338
1692741259343597173,9462,1692741259343597173,,5.755459040160573
1692741259348529577,9463,1692741259348529577,,5.47299200162064
1692741259353652477,9464,1692741259353652477,,5.145498957769195
1692741259358539342,9465,1692741259358539342,,6.006083317563462
1692741259363755702,9466,1692741259363755702,,5.225762350180295
1692741259368525028,9467,1692741259368525028,,4.905510911736412
1692741259373765468,9468,1692741259373765468,,5.078861516671428
1692741259378561735,9469,1692741259378561735,,5.820855380650838
1692741259383378982,9470,1692741259383378982,,5.209545786334916
1692741259390198469,9471,1692741259390198469,,5.73138344338597
1692741259394114255,9472,1692741259394114255,,5.879894322137501
1692741259398559808,9473,1692741259398559808,,5.347737193477355
1692741259403777599,9474,1692741259403777599,,5.466835230945409
1692741259408539295,9475,1692741259408539295,,5.534039523048105
1692741259413747310,9476,1692741259413747310,,5.969629718015028
1692741259418591022,9477,1692741259418591022,,5.370323605448076
1692741259423414707,9478,1692741259423414707,,5.304618731938005
1692741259428685903,9479,1692741259428685903,,5.433977505206729
1692741259433432817,9480,1692741259433432817,,4.97772792928873
1692741259438367128,9481,1692741259438367128,,4.755350631547406
1692741259443554401,9482,1692741259443554401,,5.0247254731477184
1692741259448407411,9483,1692741259448407411,,5.359022379229484
1692741259453576564,9484,1692741259453576564,,5.139026279091485
1692741259458530187,9485,1692741259458530187,,5.677211111623625
1692741259463631391,9486,1692741259463631391,,5.373871742680371
1692741259468581199,9487,1692741259468581199,,5.696803515882311
1692741259473779678,9488,1692741259473779678,,5.869803133214835
1692741259478538990,9489,1692741259478538990,,5.432822601072422
1692741259483313560,9490,1692741259483313560,,5.060235639474726
1692741259488622426,9491,1692741259488622426,,5.2834078704679275
1692741259493370294,9492,1692741259493370294,,5.287253622382365
1692741259498704195,9493,1692741259498704195,,4.928566265058532
1692741259503700733,9494,1692741259503700733,,5.315059823460715
1692741259508638620,9495,1692741259508638620,,5.728260141906529
1692741259513432979,9496,1692741259513432979,,5.1499875065083165
1692741259518606662,9497,1692741259518606662,,5.161444736913651
1692741259523464202,9498,1692741259523464202,,5.2190322235900934
1692741259529664754,9499,1692741259529664754,,4.8031838651733265
1692741259533896684,9500,1692741259533896684,,5.4265344658722166
1692741259538304328,9501,1692741259538304328,,5.591321052687348
1692741259543522596,9502,1692741259543522596,,5.6285446774048475
1692741259548358678,9503,1692741259548358678,,5.089350852770248
1692741259553570032,9504,1692741259553570032,,5.81445139152479
1692741259558458328,9505,1692741259558458328,,4.886979489671963
1692741259563569307,9506,1692741259563569307,,5.058302521436824
1692741259568905115,9507,1692741259568905115,,5.233177227739689
1692741259573629856,9508,1692741259573629856,,5.252773046844567
1692741259578486204,9509,1692741259578486204,,5.895328243017348
1692741259583659172,9510,1692741259583659172,,5.13539646398949
1692741259588448286,9511,1692741259588448286,,5.213578620949794
1692741259593801736,9512,1692741259593801736,,4.721220951625735
1692741259598518133,9513,1692741259598518133,,4.701777895109533
1692741259603746652,9514,1692741259603746652,,5.780299098829132
1692741259608613014,9515,1692741259608613014,,6.180373238020409
1692741259613623619,9516,1692741259613623619,,5.754653845142257
1692741259618557691,9517,1692741259618557691,,5.638884602430559
1692741259623671054,9518,1692741259623671054,,5.992952436797091
1692741259628487110,9519,1692741259628487110,,6.00207908961967
1692741259633661270,9520,1692741259633661270,,5.152056895647953
1692741259638644218,9521,1692741259638644218,,5.18269396378964
1692741259648935794,9522,1692741259648935794,,5.294925612611144
1692741259650558710,9523,1692741259650558710,,5.246507449593402
1692741259654249191,9524,1692741259654249191,,4.896857516355011
1692741259659768581,9525,1692741259659768581,,5.722209807284824
1692741259664108276,9526,1692741259664108276,,4.671669879948376
1692741259668530464,9527,1692741259668530464,,5.582022561982429
1692741259673724889,9528,1692741259673724889,,5.157619900292933
1692741259678527116,9529,1692741259678527116,,5.172609989100776
1692741259683773040,9530,1692741259683773040,,5.464062028949571
1692741259688592433,9531,1692741259688592433,,6.271877860925202
1692741259693805456,9532,1692741259693805456,,5.7212115188532024
1692741259698615074,9533,1692741259698615074,,5.972099642721431
1692741259703912496,9534,1692741259703912496,,5.2622964456574115
1692741259708832025,9535,1692741259708832025,,5.677623859774599
1692741259713967561,9536,1692741259713967561,,5.1904399765858
1692741259718785762,9537,1692741259718785762,,4.83480307970452
1692741259723633766,9538,1692741259723633766,,5.855331273989255
1692741259728524446,9539,1692741259728524446,,4.676800332830349
1692741259734571456,9540,1692741259734571456,,5.753947004314332
1692741259738480806,9541,1692741259738480806,,4.294225094598785
1692741259743867635,9542,1692741259743867635,,5.274776009192268
1692741259748638629,9543,1692741259748638629,,4.596583122132223
1692741259753848075,9544,1692741259753848075,,5.447049435365691
1692741259758690357,9545,1692741259758690357,,4.193533344173197
1692741259764053344,9546,1692741259764053344,,5.096946969171313
1692741259768516302,9547,1692741259768516302,,5.231625839263749
1692741259773718118,9548,1692741259773718118,,5.22789733408579
1692741259778445720,9549,1692741259778445720,,5.354949083944269
1692741259783609151,9550,1692741259783609151,,4.336972916158948
1692741259788520336,9551,1692741259788520336,,5.561543390807566
1692741259793618440,9552,1692741259793618440,,5.0558137591297125
1692741259798492908,9553,1692741259798492908,,5.849972332270197
1692741259803606748,9554,1692741259803606748,,5.285439784173251
1692741259808533906,9555,1692741259808533906,,5.341272852092784
1692741259813712835,9556,1692741259813712835,,6.098175574714125
1692741259818533897,9557,1692741259818533897,,4.686669851839957
1692741259823784589,9558,1692741259823784589,,5.3847002785028115
1692741259828575849,9559,1692741259828575849,,4.958617231822459
1692741259833329916,9560,1692741259833329916,,5.133457657328355
1692741259839102983,9561,1692741259839102983,,4.866372503351271
1692741259843305826,9562,1692741259843305826,,5.53627729725824
1692741259848730325,9563,1692741259848730325,,6.043569351357948
1692741259853427648,9564,1692741259853427648,,5.767465391861153
1692741259858364343,9565,1692741259858364343,,5.313039259758092
1692741259863529443,9566,1692741259863529443,,5.433415329274823
1692741259868343114,9567,1692741259868343114,,4.0168913791494525
1692741259873654365,9568,1692741259873654365,,4.65441263069677
1692741259878360033,9569,1692741259878360033,,4.125266405081541
1692741259883625507,9570,1692741259883625507,,6.268320364963453
1692741259888462305,9571,1692741259888462305,,5.793994553025648
1692741259893673181,9572,1692741259893673181,,5.455674722776552
1692741259898511886,9573,1692741259898511886,,4.95899187675767
1692741259903684854,9574,1692741259903684854,,4.97546756458645
1692741259908831834,9575,1692741259908831834,,6.051658830540227
1692741259913355112,9576,1692741259913355112,,5.363046935549132
1692741259918606519,9577,1692741259918606519,,7.215686445766889
1692741259923486948,9578,1692741259923486948,,4.7737107302660595
1692741259928729057,9579,1692741259928729057,,5.88870257469667
1692741259933436870,9580,1692741259933436870,,5.662351911316854
1692741259939657926,9581,1692741259939657926,,5.163425293665745
1692741259943801879,9582,1692741259943801879,,5.598336041035241
1692741259948706865,9583,1692741259948706865,,5.776005240653873
1692741259953432559,9584,1692741259953432559,,4.93010227403716
1692741259958346843,9585,1692741259958346843,,6.564755280189663
1692741259963524580,9586,1692741259963524580,,5.141072069703792
1692741259968860149,9587,1692741259968860149,,5.596353609306426
1692741259973647594,9588,1692741259973647594,,6.075100572121106
1692741259978463888,9589,1692741259978463888,,5.808398214461873
1692741259983619689,9590,1692741259983619689,,4.289225563946845
1692741259988487005,9591,1692741259988487005,,6.033184520083559
1692741259993685960,9592,1692741259993685960,,3.080050579924642
1692741259998509645,9593,1692741259998509645,,7.6475610492804424
1692741260003698825,9594,1692741260003698825,,6.8299351732088756
1692741260008539676,9595,1692741260008539676,,3.308401472792384
1692741260015522241,9596,1692741260015522241,,5.081664967414021
1692741260019026994,9597,1692741260019026994,,3.3961256618581745
1692741260023375272,9598,1692741260023375272,,4.0779129992830425
1692741260028679370,9599,1692741260028679370,,3.647050957004851
1692741260033437013,9600,1692741260033437013,,4.374890811815457
1692741260038353204,9601,1692741260038353204,,2.532803768432525
1692741260043723344,9602,1692741260043723344,,6.114133240086713
1692741260048478364,9603,1692741260048478364,,7.63106052406636
1692741260053660392,9604,1692741260053660392,,3.751234316802338
1692741260058512449,9605,1692741260058512449,,6.56093893171037
1692741260063694953,9606,1692741260063694953,,5.376779382740558
1692741260068499803,9607,1692741260068499803,,3.392529049840123
1692741260073896646,9608,1692741260073896646,,7.00729794948677
1692741260078664779,9609,1692741260078664779,,3.0718381096509524
1692741260083437919,9610,1692741260083437919,,3.8956026739441425
1692741260088738918,9611,1692741260088738918,,2.46120475983045
1692741260093533992,9612,1692741260093533992,,7.301938702897698
1692741260098440408,9613,1692741260098440408,,6.83344909520433
1692741260103576660,9614,1692741260103576660,,3.7486503572773113
1692741260108944177,9615,1692741260108944177,,6.99263601141096
1692741260113656044,9616,1692741260113656044,,7.507403189312114
1692741260118756532,9617,1692741260118756532,,6.14539670939387
1692741260124097347,9618,1692741260124097347,,5.5386222166735095
1692741260128483057,9619,1692741260128483057,,6.024593746408757
1692741260133683443,9620,1692741260133683443,,2.6091509995091915
1692741260138465881,9621,1692741260138465881,,3.6209098878088986
1692741260144080877,9622,1692741260144080877,,4.99474630184664
1692741260148434638,9623,1692741260148434638,,4.8161710910636
1692741260153644084,9624,1692741260153644084,,4.517382853402496
1692741260158532857,9625,1692741260158532857,,6.731069838261745
1692741260163715124,9626,1692741260163715124,,6.456766576898165
1692741260168532848,9627,1692741260168532848,,4.697670331081534
1692741260173823118,9628,1692741260173823118,,3.349311425105465
1692741260178589582,9629,1692741260178589582,,3.951865461959445
1692741260183684587,9630,1692741260183684587,,3.5227140703304323
1692741260188697338,9631,1692741260188697338,,7.987373849623648
1692741260193785905,9632,1692741260193785905,,5.303375865764384
1692741260198596239,9633,1692741260198596239,,5.568053280050152
1692741260203288793,9634,1692741260203288793,,6.014276983705242
1692741260208689928,9635,1692741260208689928,,3.9437542746686263
1692741260213389158,9636,1692741260213389158,,5.92903705716927
1692741260220265865,9637,1692741260220265865,,4.744535051802929
1692741260223458051,9638,1692741260223458051,,7.334237232283834
1692741260228344917,9639,1692741260228344917,,6.11568389700153
1692741260233473062,9640,1692741260233473062,,6.5072870122237765
1692741260238369226,9641,1692741260238369226,,4.8511285325153795
1692741260243598222,9642,1692741260243598222,,6.995326386072705
1692741260248412609,9643,1692741260248412609,,6.843476184889181
1692741260253536701,9644,1692741260253536701,,5.9179970407251545
1692741260258419752,9645,1692741260258419752,,7.380315518876374
1692741260263553857,9646,1692741260263553857,,3.052584542008655
1692741260268479585,9647,1692741260268479585,,4.437545782408919
1692741260273684740,9648,1692741260273684740,,3.960745727469576
1692741260278450489,9649,1692741260278450489,,3.083015905934541
1692741260283627986,9650,1692741260283627986,,3.1896869796210217
1692741260288557529,9651,1692741260288557529,,3.2513487137580404
1692741260293805122,9652,1692741260293805122,,6.595192859958523
1692741260298389911,9653,1692741260298389911,,6.410979523306184
1692741260303630352,9654,1692741260303630352,,5.709082949538344
1692741260308479785,9655,1692741260308479785,,7.762707502932201
1692741260313693523,9656,1692741260313693523,,7.666500881236608
1692741260318533897,9657,1692741260318533897,,4.8877544971369264
1692741260323717832,9658,1692741260323717832,,7.587810717145184
1692741260328584432,9659,1692741260328584432,,7.035944408305487
1692741260336744546,9660,1692741260336744546,,6.992979819210312
1692741260339065313,9661,1692741260339065313,,5.758691362745463
1692741260343372106,9662,1692741260343372106,,6.714551861262569
1692741260348690748,9663,1692741260348690748,,4.988142195957667
1692741260353485584,9664,1692741260353485584,,6.848311089141847
1692741260358335256,9665,1692741260358335256,,6.034417191046208
1692741260363511085,9666,1692741260363511085,,2.5393661722029424
1692741260368355751,9667,1692741260368355751,,3.5666085814604136
1692741260373602628,9668,1692741260373602628,,6.632159618255062
1692741260378848552,9669,1692741260378848552,,2.6227407041539106
1692741260383504867,9670,1692741260383504867,,5.604077640701206
1692741260388493299,9671,1692741260388493299,,2.8557140008375206
1692741260393613815,9672,1692741260393613815,,7.80465593019714
1692741260398423433,9673,1692741260398423433,,1.995260316867216
1692741260403661012,9674,1692741260403661012,,2.7200122739149775
1692741260409123182,9675,1692741260409123182,,7.859702001939101
1692741260414353132,9676,1692741260414353132,,2.8600311237806486
1692741260418503999,9677,1692741260418503999,,2.8341852592835104
1692741260425141572,9678,1692741260425141572,,6.465693587180173
1692741260428622245,9679,1692741260428622245,,4.6741617031106095
1692741260433388710,9680,1692741260433388710,,7.0793118769265195
1692741260438477754,9681,1692741260438477754,,2.0926346367432522
1692741260443684101,9682,1692741260443684101,,2.6111505014335274
1692741260448530435,9683,1692741260448530435,,7.55852652662785
1692741260453831672,9684,1692741260453831672,,4.0795671267144655
1692741260458476543,9685,1692741260458476543,,3.0266542149505
1692741260463674306,9686,1692741260463674306,,5.155528069161866
1692741260468451738,9687,1692741260468451738,,6.773991188125718
1692741260473723411,9688,1692741260473723411,,3.1909985793327005
1692741260478458642,9689,1692741260478458642,,6.652452915249518
1692741260483644723,9690,1692741260483644723,,2.5543069882309934
1692741260488464832,9691,1692741260488464832,,2.3268719633176533
1692741260493691205,9692,1692741260493691205,,5.695084794978967
1692741260498472213,9693,1692741260498472213,,4.997333194627192
1692741260503652572,9694,1692741260503652572,,3.509121031816791
1692741260508589506,9695,1692741260508589506,,2.710334963837473
1692741260513776779,9696,1692741260513776779,,7.902244451145281
1692741260518551588,9697,1692741260518551588,,3.993960345981707
1692741260523399591,9698,1692741260523399591,,6.272767117763361
1692741260528249502,9699,1692741260528249502,,2.6768083243705907
1692741260533455371,9700,1692741260533455371,,5.678541926969816
1692741260538408279,9701,1692741260538408279,,4.885794724256191
1692741260543527841,9702,1692741260543527841,,5.239522812604151
1692741260548684120,9703,1692741260548684120,,3.6315429363228917
1692741260553416967,9704,1692741260553416967,,4.692835315010052
1692741260558667182,9705,1692741260558667182,,7.142918823607371
1692741260563388109,9706,1692741260563388109,,4.576145890072835
1692741260568304538,9707,1692741260568304538,,5.8482195445163745
1692741260573544979,9708,1692741260573544979,,4.080055281311303
1692741260578345298,9709,1692741260578345298,,5.453150720185533
1692741260583566188,9710,1692741260583566188,,4.695058378380567
1692741260588416337,9711,1692741260588416337,,5.0735614097219655
1692741260593595743,9712,1692741260593595743,,4.778568938840124
1692741260598451852,9713,1692741260598451852,,4.813456718107977
1692741260603627681,9714,1692741260603627681,,3.535029979896166
1692741260608479261,9715,1692741260608479261,,3.4899966163102953
1692741260613635301,9716,1692741260613635301,,6.015192968749408
1692741260618447780,9717,1692741260618447780,,6.6401218710097485
1692741260623741388,9718,1692741260623741388,,5.640968657968976
1692741260629811286,9719,1692741260629811286,,5.318037008865854
1692741260633488178,9720,1692741260633488178,,3.2298957619731805
1692741260638607501,9721,1692741260638607501,,3.8263092376054844
1692741260643345117,9722,1692741260643345117,,6.729597013989197
1692741260648663520,9723,1692741260648663520,,4.86634482979598
1692741260653417587,9724,1692741260653417587,,4.452174935587178
1692741260658668041,9725,1692741260658668041,,3.6186478759349296
1692741260663383007,9726,1692741260663383007,,5.40189072672042
1692741260668284893,9727,1692741260668284893,,6.8901405844304895
1692741260673562526,9728,1692741260673562526,,5.796555096086101
1692741260679439544,9729,1692741260679439544,,5.613528052905816
1692741260683596372,9730,1692741260683596372,,3.8308228503607746
1692741260688986301,9731,1692741260688986301,,7.538119491379644
1692741260693506717,9732,1692741260693506717,,5.715544279420645
1692741260698385715,9733,1692741260698385715,,4.744019316366226
1692741260704328298,9734,1692741260704328298,,4.876669599712832
1692741260708911418,9735,1692741260708911418,,3.293118524378602
1692741260713632106,9736,1692741260713632106,,5.47961192995652
1692741260718586921,9737,1692741260718586921,,4.787413727878988
1692741260723654985,9738,1692741260723654985,,5.733814341983834
1692741260728449583,9739,1692741260728449583,,5.068953435681515
1692741260733769655,9740,1692741260733769655,,5.699695208506477
1692741260738596916,9741,1692741260738596916,,5.255094364812765
1692741260743371009,9742,1692741260743371009,,6.860663290942357
1692741260748403787,9743,1692741260748403787,,4.968915534634355
1692741260753551721,9744,1692741260753551721,,6.52106985193894
1692741260758491754,9745,1692741260758491754,,5.009875747439857
1692741260763876438,9746,1692741260763876438,,5.399879486593306
1692741260768446207,9747,1692741260768446207,,5.195825600891559
1692741260773800611,9748,1692741260773800611,,6.774971437223172
1692741260778490543,9749,1692741260778490543,,5.121399584074442
1692741260783671617,9750,1692741260783671617,,6.423712047419248
1692741260788417816,9751,1692741260788417816,,5.076910578188841
1692741260793734550,9752,1692741260793734550,,6.111540163898162
1692741260798475742,9753,1692741260798475742,,5.169329747691069
1692741260803699731,9754,1692741260803699731,,5.814343513959551
1692741260808501720,9755,1692741260808501720,,5.751001397080175
1692741260813331604,9756,1692741260813331604,,4.3576134371440345
1692741260818644285,9757,1692741260818644285,,5.2221001278903705
1692741260823435068,9758,1692741260823435068,,6.837751069401414
1692741260828332662,9759,1692741260828332662,,4.27730567504173
1692741260834652662,9760,1692741260834652662,,5.565107982048911
1692741260838249683,9761,1692741260838249683,,4.826577363299368
1692741260843536853,9762,1692741260843536853,,5.338849454351472
1692741260848337888,9763,1692741260848337888,,4.246339726859181
1692741260853854894,9764,1692741260853854894,,4.6261359615129605
1692741260858367204,9765,1692741260858367204,,5.61991540920677
1692741260863810539,9766,1692741260863810539,,5.279771597608319
1692741260868626594,9767,1692741260868626594,,5.730917602508912
1692741260873445272,9768,1692741260873445272,,5.504507115326676
1692741260878300189,9769,1692741260878300189,,5.25060317157516
1692741260883902788,9770,1692741260883902788,,5.184602387806049
1692741260888303041,9771,1692741260888303041,,6.740985650733843
1692741260893657445,9772,1692741260893657445,,4.965010593277112
1692741260898276090,9773,1692741260898276090,,4.944273989923596
1692741260903479576,9774,1692741260903479576,,5.538050448358689
1692741260908398628,9775,1692741260908398628,,5.578912886933602
1692741260913558483,9776,1692741260913558483,,5.208420507303168
1692741260918777227,9777,1692741260918777227,,5.722636777117526
1692741260925753831,9778,1692741260925753831,,4.658546666461065
1692741260928409337,9779,1692741260928409337,,5.230940184711588
1692741260933779478,9780,1692741260933779478,,5.36220465122575
1692741260938591957,9781,1692741260938591957,,5.26977155232948
1692741260943377971,9782,1692741260943377971,,5.498002038167974
1692741260949747800,9783,1692741260949747800,,5.488812749520331
1692741260953207254,9784,1692741260953207254,,5.835823077101689
1692741260958625793,9785,1692741260958625793,,5.4756164164202215
1692741260963302373,9786,1692741260963302373,,4.702625511413551
1692741260968657970,9787,1692741260968657970,,5.448566619978919
1692741260973496675,9788,1692741260973496675,,5.1977670612920175
1692741260978453874,9789,1692741260978453874,,5.349580379324134
1692741260983711242,9790,1692741260983711242,,5.0416562876444
1692741260988473415,9791,1692741260988473415,,5.458713811845917
1692741260993355751,9792,1692741260993355751,,5.638429102044015
1692741260998617887,9793,1692741260998617887,,4.722795720240442
1692741261003352642,9794,1692741261003352642,,5.211596497367721
1692741261008737087,9795,1692741261008737087,,4.822265311051831
1692741261013442754,9796,1692741261013442754,,5.184437220090033
1692741261018301248,9797,1692741261018301248,,4.917811547374655
1692741261023521900,9798,1692741261023521900,,6.019345160026306
1692741261028348922,9799,1692741261028348922,,4.744266319697791
1692741261033539533,9800,1692741261033539533,,5.018998795430059
1692741261039433956,9801,1692741261039433956,,5.351218099221102
1692741261043564796,9802,1692741261043564796,,5.306920009389686
1692741261048480749,9803,1692741261048480749,,5.076728107694641
1692741261053566217,9804,1692741261053566217,,5.076395758727286
1692741261058478355,9805,1692741261058478355,,4.988638202217503
1692741261065684556,9806,1692741261065684556,,5.396777642856765
1692741261068545818,9807,1692741261068545818,,4.282696730621432
1692741261073470830,9808,1692741261073470830,,5.3292235541006345
1692741261078779697,9809,1692741261078779697,,5.602668155999939
1692741261083547830,9810,1692741261083547830,,5.208709147813827
