%time,field.header.seq,field.header.stamp,field.header.frame_id,field.data.data
1692748573100738048,2103,1692748573100738048,,0.4209984790470912
1692748573105877161,2104,1692748573105877161,,0.30465008214503697
1692748573110724449,2105,1692748573110724449,,0.07196219969621939
1692748573115971326,2106,1692748573115971326,,0.17236251062744207
1692748573120739698,2107,1692748573120739698,,0.06826943557754706
1692748573125531435,2108,1692748573125531435,,0.09084311963145662
1692748573130861520,2109,1692748573130861520,,0.020883490238634856
1692748573135684013,2110,1692748573135684013,,0.08213103477479138
1692748573140737771,2111,1692748573140737771,,0.22808025349687142
1692748573145992279,2112,1692748573145992279,,0.046908807238359974
1692748573150794267,2113,1692748573150794267,,0.010990927878857294
1692748573155575752,2114,1692748573155575752,,0.04987027201562464
1692748573160873413,2115,1692748573160873413,,0.12429503254003678
1692748573165676355,2116,1692748573165676355,,0.02512239187537716
1692748573170556783,2117,1692748573170556783,,0.011395585334420854
1692748573175848722,2118,1692748573175848722,,0.07506664414542115
1692748573180715084,2119,1692748573180715084,,0.048592268410926176
1692748573185896635,2120,1692748573185896635,,0.25395145891225285
1692748573190696239,2121,1692748573190696239,,0.148062699264455
1692748573195964097,2122,1692748573195964097,,0.4831275448853154
1692748573200771570,2123,1692748573200771570,,0.9787857628922225
1692748573205910682,2124,1692748573205910682,,1.1615421510481216
1692748573210750579,2125,1692748573210750579,,0.23398806616126752
1692748573216045379,2126,1692748573216045379,,0.06483113172185823
1692748573221166610,2127,1692748573221166610,,0.014613309931485585
1692748573229386329,2128,1692748573229386329,,0.05575352924595017
1692748573231116771,2129,1692748573231116771,,0.18671284697488805
1692748573235851764,2130,1692748573235851764,,0.18458871040956953
1692748573241281747,2131,1692748573241281747,,0.03871998720709172
1692748573245895624,2132,1692748573245895624,,0.008543157920801174
1692748573250712394,2133,1692748573250712394,,0.010451717033480714
1692748573259474754,2134,1692748573259474754,,0.14238495024081713
1692748573261089086,2135,1692748573261089086,,0.07028321468110058
1692748573265946626,2136,1692748573265946626,,0.07859285462463006
1692748573270799160,2137,1692748573270799160,,0.23582125473981186
1692748573275979280,2138,1692748573275979280,,0.05493388972160683
1692748573280885696,2139,1692748573280885696,,0.01373128088945892
1692748573285705327,2140,1692748573285705327,,0.0308655799748686
1692748573291076898,2141,1692748573291076898,,0.2616189725644355
1692748573295955419,2142,1692748573295955419,,0.08378997057924795
1692748573300750255,2143,1692748573300750255,,0.08171519542953315
1692748573305820226,2144,1692748573305820226,,0.018026207219039338
1692748573310684680,2145,1692748573310684680,,0.23417408978746854
1692748573315908432,2146,1692748573315908432,,0.057425936338487533
1692748573320672988,2147,1692748573320672988,,0.11228940934274512
1692748573325991630,2148,1692748573325991630,,0.18297353816023293
1692748573330785512,2149,1692748573330785512,,0.11163126589670334
1692748573335996866,2150,1692748573335996866,,0.022687563140072742
1692748573343583345,2151,1692748573343583345,,0.40055380417201264
1692748573345950603,2152,1692748573345950603,,0.09761815307347646
1692748573350825786,2153,1692748573350825786,,0.02387264406260234
1692748573356065511,2154,1692748573356065511,,0.004833559411744371
1692748573360845327,2155,1692748573360845327,,0.0020676010292359393
1692748573366142272,2156,1692748573366142272,,0.02007447460023995
1692748573370867967,2157,1692748573370867967,,0.005667623034369341
1692748573375683307,2158,1692748573375683307,,0.0049128599181757346
1692748573380594968,2159,1692748573380594968,,0.029268987948563762
1692748573385762214,2160,1692748573385762214,,0.14594514486493546
1692748573390602588,2161,1692748573390602588,,0.029280372811730467
1692748573395850658,2162,1692748573395850658,,0.015369503885646122
1692748573400651454,2163,1692748573400651454,,0.15685983656749536
1692748573405928611,2164,1692748573405928611,,0.03392291911453589
1692748573410687208,2165,1692748573410687208,,0.09916916057610675
1692748573416052579,2166,1692748573416052579,,0.04898633752513393
1692748573420670986,2167,1692748573420670986,,0.1440661507528727
1692748573425778627,2168,1692748573425778627,,0.20378748356748766
1692748573430680513,2169,1692748573430680513,,0.4435117399527925
1692748573435968399,2170,1692748573435968399,,0.13782277244461894
1692748573440636157,2171,1692748573440636157,,0.32882420422053965
1692748573445974588,2172,1692748573445974588,,0.06993852154150326
1692748573450616359,2173,1692748573450616359,,0.06989447788547967
1692748573455843210,2174,1692748573455843210,,0.023667606716330974
1692748573460660696,2175,1692748573460660696,,0.025369735442250792
1692748573465840816,2176,1692748573465840816,,0.01612899258502803
1692748573470689058,2177,1692748573470689058,,0.07194765172974026
1692748573475909233,2178,1692748573475909233,,0.023618621990683614
1692748573480609416,2179,1692748573480609416,,0.008567625234585175
1692748573485892534,2180,1692748573485892534,,0.04020087184984232
1692748573490738868,2181,1692748573490738868,,0.013497110870882383
1692748573496278285,2182,1692748573496278285,,0.056392351227265824
1692748573500781059,2183,1692748573500781059,,0.23041392906470895
1692748573506051540,2184,1692748573506051540,,0.07825123036431572
1692748573510593652,2185,1692748573510593652,,0.022301478977354995
1692748573515871763,2186,1692748573515871763,,0.1904129040326061
1692748573520661354,2187,1692748573520661354,,0.04864826698800583
1692748573525872945,2188,1692748573525872945,,0.023228491653160585
1692748573530795812,2189,1692748573530795812,,0.029494419625498175
1692748573535966873,2190,1692748573535966873,,0.006329899325324649
1692748573540743112,2191,1692748573540743112,,0.0067567413167221035
1692748573548500537,2192,1692748573548500537,,0.0659852095877432
1692748573550907611,2193,1692748573550907611,,0.12368166854931084
1692748573555689811,2194,1692748573555689811,,0.07388594497853487
1692748573560954332,2195,1692748573560954332,,0.019410122745116165
1692748573565807104,2196,1692748573565807104,,0.09193476941824173
1692748573571545600,2197,1692748573571545600,,0.06370320165376805
1692748573575916051,2198,1692748573575916051,,0.03614744364563561
1692748573580748319,2199,1692748573580748319,,0.008614602150211662
1692748573586138963,2200,1692748573586138963,,0.204910377908949
1692748573590686321,2201,1692748573590686321,,0.040989866270712966
1692748573596081733,2202,1692748573596081733,,0.045426568301672465
1692748573600764513,2203,1692748573600764513,,0.19532529741854945
1692748573605955123,2204,1692748573605955123,,0.09432370699853265
1692748573610756158,2205,1692748573610756158,,0.044974282166638443
1692748573616001129,2206,1692748573616001129,,0.009034051513087851
1692748573620747327,2207,1692748573620747327,,0.004760533373798364
1692748573625937938,2208,1692748573625937938,,0.014764707021176177
1692748573630706548,2209,1692748573630706548,,0.05336040672084753
1692748573636021137,2210,1692748573636021137,,0.43904878343504683
1692748573640779495,2211,1692748573640779495,,0.1947288752056478
1692748573645961999,2212,1692748573645961999,,0.49165003065209395
1692748573650733709,2213,1692748573650733709,,0.2628430971614758
1692748573655997276,2214,1692748573655997276,,0.2151456294173339
1692748573660753965,2215,1692748573660753965,,0.8263751720825642
1692748573666027069,2216,1692748573666027069,,0.16957226555550475
1692748573670753002,2217,1692748573670753002,,2.2464193523645073
1692748573676164627,2218,1692748573676164627,,1.2307566498233438
1692748573680778741,2219,1692748573680778741,,0.2686981759700413
1692748573688287496,2220,1692748573688287496,,0.05615649311128501
1692748573690856695,2221,1692748573690856695,,0.6147317024302671
1692748573696519374,2222,1692748573696519374,,0.12425932619104765
1692748573700874805,2223,1692748573700874805,,0.08281906171007376
1692748573706101179,2224,1692748573706101179,,0.6574867120431628
1692748573710889577,2225,1692748573710889577,,0.6060776153563212
1692748573715803146,2226,1692748573715803146,,0.45914490864795504
1692748573720603227,2227,1692748573720603227,,0.613342917414529
1692748573725834608,2228,1692748573725834608,,0.1410236395297479
1692748573730720758,2229,1692748573730720758,,2.648677994313127
1692748573735950946,2230,1692748573735950946,,0.6276400323642235
1692748573740708112,2231,1692748573740708112,,0.6161528748444954
1692748573745943784,2232,1692748573745943784,,0.20395528540707938
1692748573753219604,2233,1692748573753219604,,0.49876102102553427
1692748573756709098,2234,1692748573756709098,,0.730590668087997
1692748573760687351,2235,1692748573760687351,,0.27389432414627196
1692748573765905380,2236,1692748573765905380,,0.26088043431935865
1692748573770747900,2237,1692748573770747900,,0.21820196986618828
1692748573775931835,2238,1692748573775931835,,0.04470018868153944
1692748573780767202,2239,1692748573780767202,,0.050354166395725646
1692748573785935401,2240,1692748573785935401,,0.012398057694014088
1692748573790737152,2241,1692748573790737152,,1.073473200813471
1692748573795990228,2242,1692748573795990228,,0.8545393972563288
1692748573800756216,2243,1692748573800756216,,1.00457888023952
1692748573805956125,2244,1692748573805956125,,0.9697968691633465
1692748573810781002,2245,1692748573810781002,,0.19424350394132608
1692748573815982818,2246,1692748573815982818,,0.2768330032131401
1692748573820773601,2247,1692748573820773601,,0.1832303696563481
1692748573826000928,2248,1692748573826000928,,0.05955459499242149
1692748573830956697,2249,1692748573830956697,,0.03262722875023778
1692748573835586071,2250,1692748573835586071,,0.5354791985154304
1692748573841017961,2251,1692748573841017961,,0.18984329210653073
1692748573845769882,2252,1692748573845769882,,0.5455762130619355
1692748573850678205,2253,1692748573850678205,,0.30044564619217945
1692748573855841398,2254,1692748573855841398,,0.09450668589874822
1692748573860658884,2255,1692748573860658884,,0.02502634014150793
1692748573865900278,2256,1692748573865900278,,0.12418528157347725
1692748573870752811,2257,1692748573870752811,,0.025111721646918463
1692748573875930309,2258,1692748573875930309,,0.01188777330270304
1692748573880769252,2259,1692748573880769252,,0.08105687382845872
1692748573885927915,2260,1692748573885927915,,0.05363153218212635
1692748573892572402,2261,1692748573892572402,,0.1595479594037256
1692748573895893573,2262,1692748573895893573,,0.04186321639393894
1692748573900708198,2263,1692748573900708198,,0.1772376163382922
1692748573905932426,2264,1692748573905932426,,0.04385735740525278
1692748573910753250,2265,1692748573910753250,,0.08472011932589224
1692748573915963172,2266,1692748573915963172,,0.017424093831044193
1692748573920841932,2267,1692748573920841932,,0.10956243627617947
1692748573926049947,2268,1692748573926049947,,0.14299577674251343
1692748573930738449,2269,1692748573930738449,,0.02862568675123709
1692748573936023235,2270,1692748573936023235,,0.011228023566947697
1692748573940778017,2271,1692748573940778017,,0.0035199325028313234
1692748573946023225,2272,1692748573946023225,,0.07777829435565055
1692748573950790166,2273,1692748573950790166,,0.02093427727987736
1692748573958162546,2274,1692748573958162546,,0.057325813157450424
1692748573960927248,2275,1692748573960927248,,0.24587519093385712
1692748573965764522,2276,1692748573965764522,,0.06225318732650216
1692748573970611095,2277,1692748573970611095,,0.03362087023304517
1692748573975859165,2278,1692748573975859165,,0.21225165232175103
1692748573980698347,2279,1692748573980698347,,0.04249729546132594
1692748573985896587,2280,1692748573985896587,,0.16231368976571497
1692748573990734100,2281,1692748573990734100,,0.049147635092729264
1692748573995948553,2282,1692748573995948553,,0.05451921597345294
1692748574000751733,2283,1692748574000751733,,0.08533237360766056
1692748574005901575,2284,1692748574005901575,,0.03294848337634183
1692748574010704278,2285,1692748574010704278,,0.008773544107646792
1692748574015915870,2286,1692748574015915870,,0.07459497836628308
1692748574020587444,2287,1692748574020587444,,0.05905112568519744
1692748574025891780,2288,1692748574025891780,,0.15677772720266459
1692748574030801057,2289,1692748574030801057,,0.1454818944648872
1692748574035932302,2290,1692748574035932302,,0.10624214755647843
1692748574040859460,2291,1692748574040859460,,0.03783503349379938
1692748574045657634,2292,1692748574045657634,,0.03883829855580587
1692748574050935983,2293,1692748574050935983,,0.016801178822057148
1692748574055781126,2294,1692748574055781126,,0.011343630436973721
1692748574060595750,2295,1692748574060595750,,0.05563390825381341
1692748574065800189,2296,1692748574065800189,,0.08139694323330378
1692748574070674419,2297,1692748574070674419,,0.017727576594986954
1692748574075880289,2298,1692748574075880289,,0.17954115166212
1692748574080701589,2299,1692748574080701589,,0.04778556487255003
1692748574085879802,2300,1692748574085879802,,0.01692403275019699
1692748574090726137,2301,1692748574090726137,,0.05263754002382704
1692748574097565174,2302,1692748574097565174,,0.2196839859765692
1692748574101122856,2303,1692748574101122856,,0.44237053244851665
1692748574105833530,2304,1692748574105833530,,0.5939607785937273
1692748574110651493,2305,1692748574110651493,,0.32193909131491616
1692748574115923881,2306,1692748574115923881,,0.63896470507519
1692748574120692014,2307,1692748574120692014,,0.2300146085673175
1692748574125921010,2308,1692748574125921010,,0.0797544376614564
1692748574130782604,2309,1692748574130782604,,0.04776297732182448
1692748574136008501,2310,1692748574136008501,,0.01671097870048869
1692748574140802621,2311,1692748574140802621,,0.003400249356135003
1692748574145972967,2312,1692748574145972967,,0.033686122313290476
1692748574150820493,2313,1692748574150820493,,0.026248712220829962
1692748574156082868,2314,1692748574156082868,,0.11550422518179826
1692748574162782907,2315,1692748574162782907,,0.06448077310474626
1692748574166015625,2316,1692748574166015625,,0.34660246750011053
1692748574170805931,2317,1692748574170805931,,0.1845266776205835
1692748574176030158,2318,1692748574176030158,,0.3512507283247988
1692748574180859327,2319,1692748574180859327,,0.5523378443161282
1692748574186161518,2320,1692748574186161518,,0.3684431000033469
1692748574190960884,2321,1692748574190960884,,0.0737120498347427
1692748574195777654,2322,1692748574195777654,,0.023091967849168414
1692748574200648784,2323,1692748574200648784,,0.00481689332012941
1692748574205819606,2324,1692748574205819606,,0.03192496559456608
1692748574210644960,2325,1692748574210644960,,0.01998638918956789
1692748574215903997,2326,1692748574215903997,,0.06460919651107011
1692748574220666885,2327,1692748574220666885,,0.020641414782674186
1692748574225874662,2328,1692748574225874662,,0.024457389969484215
1692748574230836629,2329,1692748574230836629,,0.01916082557213737
1692748574235930204,2330,1692748574235930204,,0.0211235880464953
1692748574240839004,2331,1692748574240839004,,0.06446597047064312
1692748574246075153,2332,1692748574246075153,,0.1942897143108744
1692748574250852346,2333,1692748574250852346,,0.044541663945135035
1692748574255682706,2334,1692748574255682706,,0.18374628687388544
1692748574260998725,2335,1692748574260998725,,0.036762758770353135
1692748574265806913,2336,1692748574265806913,,0.008939399642167818
1692748574270693778,2337,1692748574270693778,,0.03178697933911897
1692748574275877714,2338,1692748574275877714,,0.01845912889975062
1692748574280719518,2339,1692748574280719518,,0.07763001605168023
1692748574285859346,2340,1692748574285859346,,0.04949244323064976
1692748574290719747,2341,1692748574290719747,,0.51974276677754
1692748574295929670,2342,1692748574295929670,,0.10759271316001551
1692748574302214860,2343,1692748574302214860,,0.13698595858018653
1692748574305757284,2344,1692748574305757284,,0.02785542602620345
1692748574311023473,2345,1692748574311023473,,0.27480651556259655
1692748574315778493,2346,1692748574315778493,,0.06818363504243058
1692748574320667505,2347,1692748574320667505,,0.01862232537548072
1692748574325818300,2348,1692748574325818300,,0.015519131477591807
1692748574330744028,2349,1692748574330744028,,0.005658154684279898
1692748574335931062,2350,1692748574335931062,,0.010039188615660362
1692748574340748071,2351,1692748574340748071,,0.08377254955302588
1692748574345926761,2352,1692748574345926761,,0.05731372845492531
1692748574350768089,2353,1692748574350768089,,0.035652367347173135
1692748574355926036,2354,1692748574355926036,,0.37136701945345546
1692748574360752105,2355,1692748574360752105,,0.0762614762162541
1692748574367723464,2356,1692748574367723464,,0.015973214419879717
1692748574371193170,2357,1692748574371193170,,0.003462530268537825
1692748574375932216,2358,1692748574375932216,,0.008579655152511956
1692748574380742073,2359,1692748574380742073,,0.0017245695806181857
1692748574385882139,2360,1692748574385882139,,0.1727691091938873
1692748574390712976,2361,1692748574390712976,,0.4006087137452526
1692748574395950794,2362,1692748574395950794,,0.15128789844624746
1692748574400753498,2363,1692748574400753498,,0.03798839420138998
1692748574405925035,2364,1692748574405925035,,0.13925871150946872
1692748574410734176,2365,1692748574410734176,,0.03027397992504681
1692748574415962696,2366,1692748574415962696,,0.13324784913507282
1692748574420663356,2367,1692748574420663356,,0.6032532407229504
1692748574425810098,2368,1692748574425810098,,0.12065655290159975
1692748574430908203,2369,1692748574430908203,,0.07037617148765364
1692748574436599016,2370,1692748574436599016,,0.016175942432708104
1692748574441173076,2371,1692748574441173076,,0.12293611092074781
1692748574446263074,2372,1692748574446263074,,0.6155594539726795
1692748574450794219,2373,1692748574450794219,,0.22022755722166457
1692748574456028938,2374,1692748574456028938,,0.06014562128087515
1692748574461400270,2375,1692748574461400270,,0.015029464222305682
1692748574465662717,2376,1692748574465662717,,0.2040063853701496
1692748574470966815,2377,1692748574470966815,,0.10052114791581486
1692748574475851058,2378,1692748574475851058,,0.20272960995162204
1692748574480641603,2379,1692748574480641603,,0.05518195945356869
1692748574485830545,2380,1692748574485830545,,0.011757598927562963
1692748574490682840,2381,1692748574490682840,,0.07690357111781361
1692748574495915174,2382,1692748574495915174,,0.10027545524716676
1692748574500738859,2383,1692748574500738859,,0.10810843600745765
1692748574506994962,2384,1692748574506994962,,0.5528500532393998
1692748574510659217,2385,1692748574510659217,,0.16742397002331874
1692748574515896320,2386,1692748574515896320,,0.12282028167404513
1692748574520732402,2387,1692748574520732402,,0.0972191526559237
1692748574525869607,2388,1692748574525869607,,0.28369691263010804
1692748574531623601,2389,1692748574531623601,,0.057604388236808024
1692748574535886526,2390,1692748574535886526,,0.20372473720860046
1692748574540696382,2391,1692748574540696382,,0.1572554527370687
1692748574545860052,2392,1692748574545860052,,0.15161494168397488
1692748574550735950,2393,1692748574550735950,,0.07009730655296278
1692748574555944204,2394,1692748574555944204,,0.035468092705600134
1692748574560736417,2395,1692748574560736417,,0.07581989901331834
1692748574565913677,2396,1692748574565913677,,0.20265122867485977
1692748574572361707,2397,1692748574572361707,,0.4703363855604313
1692748574575835227,2398,1692748574575835227,,0.09838632079446853
1692748574580690860,2399,1692748574580690860,,0.020128847205613375
1692748574585911989,2400,1692748574585911989,,0.007724980176416487
1692748574590712547,2401,1692748574590712547,,0.02852917645534668
1692748574595946550,2402,1692748574595946550,,0.018589414104977012
1692748574600805044,2403,1692748574600805044,,0.1600674642897129
1692748574605923414,2404,1692748574605923414,,0.05148292854136745
1692748574610746622,2405,1692748574610746622,,0.0103849181344021
1692748574615982532,2406,1692748574615982532,,0.014196139374880146
1692748574620790004,2407,1692748574620790004,,0.006726421106018284
1692748574625948905,2408,1692748574625948905,,0.047571449094907306
1692748574630807876,2409,1692748574630807876,,0.12673779440452407
1692748574635946273,2410,1692748574635946273,,0.36952622377415
1692748574640722990,2411,1692748574640722990,,0.09582134051395994
1692748574646051645,2412,1692748574646051645,,0.01937081353772656
1692748574650829076,2413,1692748574650829076,,0.05706308626319068
1692748574655646562,2414,1692748574655646562,,0.082644717103607
1692748574660939931,2415,1692748574660939931,,0.06375091132034147
1692748574665814638,2416,1692748574665814638,,0.17925753059999824
1692748574670676469,2417,1692748574670676469,,0.12699098817281385
1692748574675879478,2418,1692748574675879478,,0.04622770442583336
1692748574680732965,2419,1692748574680732965,,0.1352113605182414
1692748574687342166,2420,1692748574687342166,,0.2546187717648423
1692748574690855979,2421,1692748574690855979,,0.12423723117673205
1692748574696047782,2422,1692748574696047782,,0.5134291686001536
1692748574700802087,2423,1692748574700802087,,0.17587720752294259
1692748574706030368,2424,1692748574706030368,,0.05398417105962393
1692748574711778402,2425,1692748574711778402,,0.06484038489421125
1692748574716117858,2426,1692748574716117858,,0.1093705704995827
1692748574720865488,2427,1692748574720865488,,0.02658078926472263
1692748574725670337,2428,1692748574725670337,,0.062184035207119334
1692748574731107234,2429,1692748574731107234,,0.03738267083633679
1692748574735877990,2430,1692748574735877990,,0.4632410594106091
1692748574740684509,2431,1692748574740684509,,0.09288227254121956
1692748574745887279,2432,1692748574745887279,,0.020133004006955543
1692748574750730514,2433,1692748574750730514,,0.1918482953135654
1692748574755929708,2434,1692748574755929708,,0.4507912616731582
1692748574762134790,2435,1692748574762134790,,0.8110957188041183
1692748574765785932,2436,1692748574765785932,,0.18313375630021755
1692748574770668029,2437,1692748574770668029,,0.039350653404862934
1692748574777215242,2438,1692748574777215242,,0.027999683695256183
1692748574780695199,2439,1692748574780695199,,0.3499609658031216
1692748574785855531,2440,1692748574785855531,,0.13794668486364223
1692748574790672063,2441,1692748574790672063,,0.062068121997253915
1692748574796009063,2442,1692748574796009063,,0.016876412454577126
1692748574800794124,2443,1692748574800794124,,0.1353886158426944
1692748574805889129,2444,1692748574805889129,,0.115290629159503
1692748574810698509,2445,1692748574810698509,,0.02350244717430205
1692748574815928459,2446,1692748574815928459,,0.27319090549153
1692748574820765018,2447,1692748574820765018,,0.5184408201993816
1692748574825928688,2448,1692748574825928688,,0.10677034926362425
1692748574830771684,2449,1692748574830771684,,0.08713466606234384
1692748574835877895,2450,1692748574835877895,,0.018881307465986756
1692748574840681314,2451,1692748574840681314,,0.1782194546976243
1692748574846053838,2452,1692748574846053838,,0.09000049974889546
1692748574850860357,2453,1692748574850860357,,0.04174990837442416
1692748574855677604,2454,1692748574855677604,,0.0720873391456002
1692748574860961198,2455,1692748574860961198,,0.02608277877877791
1692748574865811824,2456,1692748574865811824,,0.08322925733929308
1692748574870676040,2457,1692748574870676040,,0.19237125985285752
1692748574876105785,2458,1692748574876105785,,0.06625530927311274
1692748574881258010,2459,1692748574881258010,,0.05616538006354715
1692748574885957717,2460,1692748574885957717,,0.020305091387967045
1692748574890764236,2461,1692748574890764236,,0.009016120174111505
1692748574896603822,2462,1692748574896603822,,0.029557522887521025
1692748574901346206,2463,1692748574901346206,,0.01178332000955768
1692748574905665874,2464,1692748574905665874,,0.007882505418609999
1692748574910898208,2465,1692748574910898208,,0.004192345187267587
1692748574916889667,2466,1692748574916889667,,0.008370732376673863
1692748574920907735,2467,1692748574920907735,,0.10319198289146875
1692748574925787210,2468,1692748574925787210,,0.1435737357132723
1692748574931392669,2469,1692748574931392669,,0.6585857329879967
1692748574935783863,2470,1692748574935783863,,0.2772179393329163
1692748574940593957,2471,1692748574940593957,,0.19476995050637694
1692748574945846796,2472,1692748574945846796,,0.06565304804397681
1692748574950699329,2473,1692748574950699329,,0.05662203754886567
1692748574955920219,2474,1692748574955920219,,0.15658545935390328
1692748574960665941,2475,1692748574960665941,,0.05802505161415145
1692748574965891122,2476,1692748574965891122,,0.016825761984902987
1692748574970706701,2477,1692748574970706701,,0.0038372566483414754
1692748574975904941,2478,1692748574975904941,,0.03524175325256779
1692748574982129573,2479,1692748574982129573,,0.4883748617540434
1692748574985927104,2480,1692748574985927104,,0.19785034479025065
1692748574990849971,2481,1692748574990849971,,0.4167782785697456
1692748574995686292,2482,1692748574995686292,,0.2835201075170929
1692748575000503063,2483,1692748575000503063,,0.07528534212940496
1692748575005829095,2484,1692748575005829095,,0.04130187753881724
1692748575010680913,2485,1692748575010680913,,0.050810067023699466
1692748575015919446,2486,1692748575015919446,,0.062221808660344165
1692748575020735502,2487,1692748575020735502,,0.6672598992141335
1692748575025885105,2488,1692748575025885105,,0.16819060131991392
1692748575030774593,2489,1692748575030774593,,0.18284156196927598
1692748575036028861,2490,1692748575036028861,,0.07097406751808968
1692748575040684938,2491,1692748575040684938,,0.06053731994919494
1692748575045986652,2492,1692748575045986652,,0.013329054058925077
1692748575050783157,2493,1692748575050783157,,0.03595302659303587
1692748575056050062,2494,1692748575056050062,,0.09522001758973793
1692748575061385393,2495,1692748575061385393,,0.030087480997185997
1692748575065721035,2496,1692748575065721035,,0.027926249514617054
1692748575071030616,2497,1692748575071030616,,0.11315895061532816
1692748575075796127,2498,1692748575075796127,,0.11080490596280976
1692748575081146955,2499,1692748575081146955,,0.5086530089493777
1692748575085863113,2500,1692748575085863113,,0.10440493209889923
1692748575091198444,2501,1692748575091198444,,0.04637191589499766
1692748575095836639,2502,1692748575095836639,,0.02517963653948241
1692748575100607395,2503,1692748575100607395,,0.005044638440483747
1692748575105743169,2504,1692748575105743169,,0.0063011676414969145
1692748575110590696,2505,1692748575110590696,,0.01470625122731829
1692748575115786075,2506,1692748575115786075,,0.051329261839682526
1692748575121998310,2507,1692748575121998310,,0.011403463608755991
1692748575125632047,2508,1692748575125632047,,0.2796678171826098
1692748575130536079,2509,1692748575130536079,,0.08825790097810376
1692748575135719060,2510,1692748575135719060,,0.020604883807359278
1692748575140593767,2511,1692748575140593767,,0.012540233963078063
1692748575145787954,2512,1692748575145787954,,0.25614326203555715
1692748575150651693,2513,1692748575150651693,,0.06098736246817593
1692748575155756711,2514,1692748575155756711,,0.17980043097795345
1692748575160661697,2515,1692748575160661697,,0.14168462164992862
1692748575165801763,2516,1692748575165801763,,0.10834222144252939
1692748575170914888,2517,1692748575170914888,,0.1283781895217709
1692748575175768852,2518,1692748575175768852,,0.06805952572179502
1692748575181210279,2519,1692748575181210279,,0.7977249505076309
1692748575186901569,2520,1692748575186901569,,0.28261786578852266
1692748575190803527,2521,1692748575190803527,,0.05874920672160735
1692748575196207761,2522,1692748575196207761,,0.03957304347719995
1692748575200889825,2523,1692748575200889825,,1.7627853117322292
1692748575206046581,2524,1692748575206046581,,0.38099559230763796
1692748575210864067,2525,1692748575210864067,,0.29247973190340226
1692748575215594053,2526,1692748575215594053,,0.06375317894515882
1692748575220901966,2527,1692748575220901966,,0.8912550549687752
1692748575225662946,2528,1692748575225662946,,0.6301484635485766
1692748575230595111,2529,1692748575230595111,,0.2831436376966563
1692748575236021995,2530,1692748575236021995,,0.578065345357607
1692748575240870952,2531,1692748575240870952,,0.39171495334940465
1692748575245927095,2532,1692748575245927095,,0.32082943799047003
1692748575250740766,2533,1692748575250740766,,0.23421802953046117
1692748575256007194,2534,1692748575256007194,,0.06029253528846437
1692748575260678768,2535,1692748575260678768,,0.08198186253080024
1692748575265899658,2536,1692748575265899658,,0.15422441289564418
1692748575270694494,2537,1692748575270694494,,0.12391826242123898
1692748575275898218,2538,1692748575275898218,,0.15517293744968805
1692748575280701637,2539,1692748575280701637,,0.05206464756590824
1692748575285920858,2540,1692748575285920858,,0.053746188976489966
1692748575290959358,2541,1692748575290959358,,0.09475321042521781
1692748575296113967,2542,1692748575296113967,,0.04457635729696266
1692748575300991296,2543,1692748575300991296,,0.011382696368817006
1692748575305773496,2544,1692748575305773496,,0.14548455936633764
1692748575310690402,2545,1692748575310690402,,0.08336229872552486
1692748575315927505,2546,1692748575315927505,,0.08991010614440742
1692748575320735692,2547,1692748575320735692,,0.15945431244496275
1692748575326319932,2548,1692748575326319932,,0.09628547493430936
1692748575330768108,2549,1692748575330768108,,0.7091406715842071
1692748575335965871,2550,1692748575335965871,,0.2137168341965352
1692748575340783119,2551,1692748575340783119,,0.13171158894129373
1692748575345972061,2552,1692748575345972061,,0.061884899704997894
1692748575350787639,2553,1692748575350787639,,0.18725105509774248
1692748575355981349,2554,1692748575355981349,,0.03752806882755687
1692748575360878229,2555,1692748575360878229,,0.26526856552650674
1692748575365680217,2556,1692748575365680217,,0.20693879860401385
1692748575371103286,2557,1692748575371103286,,0.04986974272761239
1692748575375924110,2558,1692748575375924110,,0.3832600331105095
1692748575380741596,2559,1692748575380741596,,0.2801530139153022
1692748575385893821,2560,1692748575385893821,,0.12245004978717976
1692748575391759634,2561,1692748575391759634,,0.038747861223754836
1692748575395963430,2562,1692748575395963430,,0.03027345086658368
1692748575400784730,2563,1692748575400784730,,0.16041722419927137
1692748575405947446,2564,1692748575405947446,,0.09070955645015641
1692748575410767555,2565,1692748575410767555,,0.018242086383815893
1692748575415979623,2566,1692748575415979623,,0.0163453466242871
1692748575420769691,2567,1692748575420769691,,0.03757684712876431
1692748575425590276,2568,1692748575425590276,,0.08730943742758349
1692748575430991888,2569,1692748575430991888,,0.03307085837925418
1692748575435720443,2570,1692748575435720443,,0.016786910471721345
1692748575440626144,2571,1692748575440626144,,0.007763780830839174
1692748575445837736,2572,1692748575445837736,,0.27727273553801485
1692748575450728893,2573,1692748575450728893,,0.32402534370284597
1692748575455781936,2574,1692748575455781936,,0.06615154182871068
1692748575460829257,2575,1692748575460829257,,0.06657292276737116
1692748575465893745,2576,1692748575465893745,,0.024142055291237367
1692748575470788002,2577,1692748575470788002,,0.03432910758115054
1692748575475899696,2578,1692748575475899696,,0.02244683052807219
1692748575480708837,2579,1692748575480708837,,0.03894983363979576
1692748575485857963,2580,1692748575485857963,,0.015934553351539107
1692748575490725517,2581,1692748575490725517,,0.02354584311935246
1692748575495891809,2582,1692748575495891809,,0.20524864292193265
1692748575500737190,2583,1692748575500737190,,0.0514652915079368
1692748575505873680,2584,1692748575505873680,,0.059509826293534136
1692748575510748147,2585,1692748575510748147,,0.2873941018545667
1692748575515955924,2586,1692748575515955924,,0.058925381594594387
1692748575520696878,2587,1692748575520696878,,0.10656441411214355
1692748575525960683,2588,1692748575525960683,,0.022034257514417146
1692748575530987739,2589,1692748575530987739,,0.028454612339593482
1692748575535948514,2590,1692748575535948514,,0.006177994161521116
1692748575540702819,2591,1692748575540702819,,0.4265753751225674
1692748575545865774,2592,1692748575545865774,,0.11311331989267823
1692748575550742626,2593,1692748575550742626,,0.02668186892569087
1692748575555903196,2594,1692748575555903196,,0.010959129798548089
1692748575560735464,2595,1692748575560735464,,0.4835905685156062
1692748575565922021,2596,1692748575565922021,,0.09916527452937854
1692748575570723056,2597,1692748575570723056,,0.03292602376241784
1692748575575885057,2598,1692748575575885057,,0.10690033922483594
1692748575580714464,2599,1692748575580714464,,0.0540306189737008
1692748575585839509,2600,1692748575585839509,,0.021957219042894858
1692748575590708255,2601,1692748575590708255,,0.06738590875820023
1692748575596760511,2602,1692748575596760511,,0.015896030585993103
1692748575600675582,2603,1692748575600675582,,0.009262319286785104
1692748575605811357,2604,1692748575605811357,,0.019335551537584608
1692748575610658645,2605,1692748575610658645,,0.009363182490246306
1692748575615891933,2606,1692748575615891933,,0.003086098187293488
1692748575620787858,2607,1692748575620787858,,0.05987232027367117
1692748575625991106,2608,1692748575625991106,,0.056387402113822704
1692748575630841970,2609,1692748575630841970,,0.06627251258213551
1692748575635605335,2610,1692748575635605335,,0.10786799094218122
1692748575645027875,2611,1692748575645027875,,0.03165748259983966
1692748575645961523,2612,1692748575645961523,,0.08905442236793958
1692748575650774002,2613,1692748575650774002,,0.15950113753590042
1692748575655639886,2614,1692748575655639886,,0.05683728267545493
1692748575661038160,2615,1692748575661038160,,0.03821436993478507
1692748575665802001,2616,1692748575665802001,,0.007648082950332478
1692748575670632362,2617,1692748575670632362,,0.25746579189950347
1692748575675778388,2618,1692748575675778388,,0.0648328208411913
1692748575680625200,2619,1692748575680625200,,0.07659890660735978
1692748575685736894,2620,1692748575685736894,,0.04290380187311552
1692748575690601110,2621,1692748575690601110,,0.05260033701627454
1692748575695872545,2622,1692748575695872545,,0.06967436159292636
1692748575700929880,2623,1692748575700929880,,0.15148808957811163
1692748575705600738,2624,1692748575705600738,,0.12941124194845707
1692748575710860967,2625,1692748575710860967,,2.1035281989848613
1692748575715653657,2626,1692748575715653657,,0.684305558503726
1692748575720496177,2627,1692748575720496177,,0.18840286575090473
1692748575726676940,2628,1692748575726676940,,0.15619942125573238
1692748575730567216,2629,1692748575730567216,,0.051035168414782506
1692748575735713958,2630,1692748575735713958,,0.12417540765742019
1692748575740576028,2631,1692748575740576028,,0.07762048542510037
1692748575745720624,2632,1692748575745720624,,0.028601799120216355
1692748575750591516,2633,1692748575750591516,,0.010301491979421512
1692748575755688190,2634,1692748575755688190,,0.7949344847094658
1692748575760541439,2635,1692748575760541439,,0.3229859510032251
1692748575765671253,2636,1692748575765671253,,0.07103446890239366
1692748575770533800,2637,1692748575770533800,,0.48888620384620446
1692748575775665998,2638,1692748575775665998,,0.13330148388965363
1692748575780523777,2639,1692748575780523777,,0.03510703658943437
1692748575785672664,2640,1692748575785672664,,0.1332325561557958
1692748575790564298,2641,1692748575790564298,,0.04619766051899875
1692748575795834064,2642,1692748575795834064,,0.15707711865261784
1692748575802597522,2643,1692748575802597522,,0.05571045265842673
1692748575805728912,2644,1692748575805728912,,0.018064553872930034
1692748575810545921,2645,1692748575810545921,,0.5342183240932714
1692748575815719127,2646,1692748575815719127,,0.12129437856284363
1692748575820720434,2647,1692748575820720434,,0.09095181328235481
1692748575825697422,2648,1692748575825697422,,0.021433695430531634
1692748575830552816,2649,1692748575830552816,,0.042905672296175514
1692748575835777997,2650,1692748575835777997,,0.049664183549592004
1692748575840666770,2651,1692748575840666770,,0.01513944241997443
1692748575845855236,2652,1692748575845855236,,0.0038666929761583917
1692748575850692272,2653,1692748575850692272,,0.1716526971287764
1692748575855906724,2654,1692748575855906724,,0.049448060392224
1692748575860690593,2655,1692748575860690593,,0.01721362308751944
1692748575865957021,2656,1692748575865957021,,0.09251640628851805
1692748575870728492,2657,1692748575870728492,,0.26511487259929695
1692748575875510215,2658,1692748575875510215,,0.05680552374973882
1692748575880786657,2659,1692748575880786657,,0.031164098603270234
1692748575885573625,2660,1692748575885573625,,0.036192607966882576
1692748575890913009,2661,1692748575890913009,,0.03408226382776058
1692748575895761966,2662,1692748575895761966,,0.0606214588761644
1692748575900651693,2663,1692748575900651693,,0.12489050086350267
1692748575905757427,2664,1692748575905757427,,0.03395612219676665
1692748575910649299,2665,1692748575910649299,,0.037088119758571
1692748575915831804,2666,1692748575915831804,,0.7438130369159036
1692748575920668363,2667,1692748575920668363,,0.7256683366659905
1692748575925857782,2668,1692748575925857782,,0.17087814861898823
1692748575930771112,2669,1692748575930771112,,0.11954774487277788
1692748575936064004,2670,1692748575936064004,,0.04091772332450415
1692748575940786361,2671,1692748575940786361,,0.04834724936702953
1692748575946075201,2672,1692748575946075201,,0.009757841211416077
1692748575950865745,2673,1692748575950865745,,0.08875173619019501
1692748575955693483,2674,1692748575955693483,,0.032569226958603203
1692748575961018085,2675,1692748575961018085,,0.024110813757566178
1692748575965816974,2676,1692748575965816974,,0.03410193197981043
1692748575970660209,2677,1692748575970660209,,0.1341788561346774
1692748575975893735,2678,1692748575975893735,,0.03661947101788
1692748575980754613,2679,1692748575980754613,,0.32156802100627163
1692748575985878705,2680,1692748575985878705,,0.07278194904682533
1692748575990706920,2681,1692748575990706920,,0.2930670822729602
1692748575995954990,2682,1692748575995954990,,0.2440403091114302
1692748576000750064,2683,1692748576000750064,,0.6685571339336508
1692748576006272554,2684,1692748576006272554,,0.3416801276511394
1692748576010696411,2685,1692748576010696411,,0.12350544765778981
1692748576015932559,2686,1692748576015932559,,4.113822036433532
1692748576020757198,2687,1692748576020757198,,1.3195165060529013
1692748576025914192,2688,1692748576025914192,,0.2671411624962749
1692748576030774354,2689,1692748576030774354,,0.09691525905626686
1692748576035985708,2690,1692748576035985708,,0.04266416374216403
1692748576040777921,2691,1692748576040777921,,0.03581817019516906
1692748576045997381,2692,1692748576045997381,,0.02385559348035589
1692748576050814151,2693,1692748576050814151,,0.19311751076295147
1692748576056082248,2694,1692748576056082248,,0.03952614912214015
1692748576060894966,2695,1692748576060894966,,0.34254629992142976
1692748576066147089,2696,1692748576066147089,,0.08100836845416329
1692748576070942640,2697,1692748576070942640,,0.034802063947801
1692748576075819730,2698,1692748576075819730,,0.10408888955186499
1692748576081060647,2699,1692748576081060647,,0.4590792034057394
1692748576085845232,2700,1692748576085845232,,0.15635572741497408
1692748576090882301,2701,1692748576090882301,,0.050744135808902226
1692748576095856189,2702,1692748576095856189,,0.01063230799290122
1692748576100678443,2703,1692748576100678443,,0.24987357330145762
1692748576108526945,2704,1692748576108526945,,0.11809925881079258
1692748576110940933,2705,1692748576110940933,,0.09282892273348878
1692748576115765571,2706,1692748576115765571,,0.0869226653891074
1692748576121033906,2707,1692748576121033906,,0.11155638023307887
1692748576125772237,2708,1692748576125772237,,0.7834862288683053
1692748576130687952,2709,1692748576130687952,,0.22767792721333047
1692748576135917901,2710,1692748576135917901,,0.17525124574297285
1692748576140722751,2711,1692748576140722751,,0.27971018584058727
1692748576145885944,2712,1692748576145885944,,0.3280445931534223
1692748576150726318,2713,1692748576150726318,,0.1297405330247552
1692748576155944108,2714,1692748576155944108,,0.02604916449574385
1692748576160709857,2715,1692748576160709857,,0.1861096623208495
1692748576172362804,2717,1692748576172362804,,0.1728717247757142
1692748576175771236,2718,1692748576175771236,,0.2900206680293131
1692748576180677652,2719,1692748576180677652,,0.07785551519087855
1692748576185847759,2720,1692748576185847759,,0.06238894316434764
1692748576190633058,2721,1692748576190633058,,0.13024896632532357
1692748576195880174,2722,1692748576195880174,,0.062675541044972
1692748576201099157,2723,1692748576201099157,,0.0766533030052611
1692748576205924034,2724,1692748576205924034,,0.5859430835956938
1692748576210939884,2725,1692748576210939884,,0.7050970596905897
1692748576215991973,2726,1692748576215991973,,0.1424574374149491
1692748576220809221,2727,1692748576220809221,,0.06104617396364401
1692748576226066827,2728,1692748576226066827,,0.04860862627582506
1692748576230888605,2729,1692748576230888605,,0.015436733844383587
1692748576235703229,2730,1692748576235703229,,0.003091000032503769
1692748576241031646,2731,1692748576241031646,,1.7790218515232008
1692748576245784282,2732,1692748576245784282,,0.40513156810118794
1692748576250958442,2733,1692748576250958442,,0.502551300184407
1692748576255805730,2734,1692748576255805730,,0.1025180084192812
1692748576260763883,2735,1692748576260763883,,0.7962802087077814
1692748576265854358,2736,1692748576265854358,,0.21501416743895066
1692748576270673513,2737,1692748576270673513,,0.11196414448360408
1692748576275866270,2738,1692748576275866270,,0.024803685440964073
1692748576280722618,2739,1692748576280722618,,0.004961067538996182
1692748576285859346,2740,1692748576285859346,,0.0011262726997811558
1692748576290710687,2741,1692748576290710687,,0.09646501889723787
1692748576295908927,2742,1692748576295908927,,0.09553551574585338
1692748576301474094,2743,1692748576301474094,,0.06456555440137879
1692748576305844068,2744,1692748576305844068,,0.05094403210340752
1692748576313519477,2745,1692748576313519477,,0.01856771031791332
1692748576316087007,2746,1692748576316087007,,1.25806941280306
1692748576320806741,2747,1692748576320806741,,1.2443329101076013
1692748576325963020,2748,1692748576325963020,,0.2489686734839809
1692748576330799818,2749,1692748576330799818,,0.3242411560006849
1692748576336065053,2750,1692748576336065053,,0.06566209991090352
1692748576340895175,2751,1692748576340895175,,0.08927489088965651
1692748576345596075,2752,1692748576345596075,,0.12698116798101852
1692748576350967884,2753,1692748576350967884,,0.026525308837095755
1692748576355674505,2754,1692748576355674505,,0.019354748664163094
1692748576360557079,2755,1692748576360557079,,0.005281440964050612
1692748576365711212,2756,1692748576365711212,,0.030530185413669895
1692748576370579242,2757,1692748576370579242,,0.03648535310550917
1692748576379332065,2758,1692748576379332065,,0.03710094162239581
1692748576380699157,2759,1692748576380699157,,0.36767273339711243
1692748576385727882,2760,1692748576385727882,,0.10396773203288992
1692748576390603303,2761,1692748576390603303,,0.035101067431146486
1692748576395758390,2762,1692748576395758390,,0.605394595129157
1692748576400665760,2763,1692748576400665760,,0.24219836541310347
1692748576409258127,2764,1692748576409258127,,0.2670017012207648
1692748576410720348,2765,1692748576410720348,,0.059128318298823763
1692748576415802717,2766,1692748576415802717,,0.016214910052169785
1692748576420635461,2767,1692748576420635461,,0.23978986245945683
1692748576425784349,2768,1692748576425784349,,0.240500618250663
1692748576430691480,2769,1692748576430691480,,0.21918381277414584
1692748576435956001,2770,1692748576435956001,,0.19131912033845572
1692748576440758943,2771,1692748576440758943,,0.05330491862294112
1692748576445577383,2772,1692748576445577383,,0.42348753990377264
1692748576452486991,2773,1692748576452486991,,0.23461085477607002
1692748576455903291,2774,1692748576455903291,,0.28138637012916135
1692748576460698127,2775,1692748576460698127,,0.5444837959613074
1692748576465895414,2776,1692748576465895414,,0.14170732311039025
1692748576470747709,2777,1692748576470747709,,0.03876984243800603
1692748576475932836,2778,1692748576475932836,,0.4438921887877735
1692748576480754613,2779,1692748576480754613,,0.09071990378293035
1692748576485904216,2780,1692748576485904216,,0.3104339724612058
1692748576490779638,2781,1692748576490779638,,0.23267869382704734
1692748576496050834,2782,1692748576496050834,,0.18882215264027993
1692748576500846862,2783,1692748576500846862,,0.11037939021014673
1692748576505980491,2784,1692748576505980491,,0.0836923399002665
1692748576510809421,2785,1692748576510809421,,0.040419277207969305
1692748576518132448,2786,1692748576518132448,,0.008737417218133776
1692748576521044731,2787,1692748576521044731,,0.02084803630334437
1692748576525786161,2788,1692748576525786161,,0.10473307211281496
1692748576530707597,2789,1692748576530707597,,0.02096171401815068
1692748576535888433,2790,1692748576535888433,,0.015187407973214447
1692748576540717601,2791,1692748576540717601,,0.329892665492735
1692748576545908451,2792,1692748576545908451,,3.192444492815367
1692748576550786733,2793,1692748576550786733,,1.8770975776663357
1692748576555919170,2794,1692748576555919170,,0.3961503557586944
1692748576560737609,2795,1692748576560737609,,0.11544663553610529
1692748576565921783,2796,1692748576565921783,,0.05786767867427669
1692748576570736169,2797,1692748576570736169,,0.02441749678487612
1692748576575923204,2798,1692748576575923204,,0.006448361151738139
1692748576581239223,2799,1692748576581239223,,0.1277617381448702
1692748576586079835,2800,1692748576586079835,,0.5889779478189213
1692748576590696334,2801,1692748576590696334,,0.11875538026148434
1692748576595921516,2802,1692748576595921516,,0.05404454985442559
1692748576600748300,2803,1692748576600748300,,0.07451569609363803
1692748576605917930,2804,1692748576605917930,,0.17501145159439627
1692748576610728740,2805,1692748576610728740,,0.42036189478095803
1692748576615960836,2806,1692748576615960836,,0.40498180058677724
1692748576620748281,2807,1692748576620748281,,0.6115834171536452
1692748576625885963,2808,1692748576625885963,,1.677923372273136
1692748576630804538,2809,1692748576630804538,,0.3427843671972214
1692748576636015176,2810,1692748576636015176,,0.08046594343650548
1692748576640819787,2811,1692748576640819787,,0.017407735333921894
1692748576646039009,2812,1692748576646039009,,0.07958190244729799
1692748576650850057,2813,1692748576650850057,,0.04367264344235079
1692748576657410860,2814,1692748576657410860,,0.16952052701400563
1692748576660921573,2815,1692748576660921573,,0.03682074318301762
1692748576665756940,2816,1692748576665756940,,0.5618206656526823
1692748576670516729,2817,1692748576670516729,,0.5494461750925183
1692748576675934553,2818,1692748576675934553,,0.14236546821478513
1692748576680824995,2819,1692748576680824995,,0.031533542104436374
1692748576685849666,2820,1692748576685849666,,0.12031443190786982
1692748576690711736,2821,1692748576690711736,,1.0884058276046562
1692748576696089506,2822,1692748576696089506,,0.217809967994479
1692748576700756311,2823,1692748576700756311,,0.1068243743215273
1692748576705888748,2824,1692748576705888748,,0.08389296103719479
1692748576710770368,2825,1692748576710770368,,0.3200462505941814
1692748576715938091,2826,1692748576715938091,,0.06894766998334852
1692748576722944498,2827,1692748576722944498,,0.18404973862969337
1692748576726070165,2828,1692748576726070165,,0.12354708125538957
1692748576730905055,2829,1692748576730905055,,0.02900838048450174
1692748576735710620,2830,1692748576735710620,,0.010047611916456776
1692748576741034507,2831,1692748576741034507,,0.02465643127130885
1692748576745825529,2832,1692748576745825529,,0.008557230232757939
1692748576750699996,2833,1692748576750699996,,0.05511337902588266
1692748576755923748,2834,1692748576755923748,,0.03890046953081982
1692748576760710716,2835,1692748576760710716,,0.30183217039750493
1692748576765896558,2836,1692748576765896558,,0.06322960626945442
1692748576770735502,2837,1692748576770735502,,0.23298874584900223
1692748576775937795,2838,1692748576775937795,,0.17170626038383058
1692748576780725955,2839,1692748576780725955,,0.08574105305123515
1692748576785860300,2840,1692748576785860300,,0.08358342061370858
1692748576790795087,2841,1692748576790795087,,0.9371343325289536
1692748576796047687,2842,1692748576796047687,,0.27506464300440625
1692748576800724267,2843,1692748576800724267,,0.05601864420004929
1692748576805838823,2844,1692748576805838823,,0.07906366713433656
1692748576810664892,2845,1692748576810664892,,0.022491535709082803
1692748576815893173,2846,1692748576815893173,,0.026719245594890858
1692748576820670127,2847,1692748576820670127,,0.03346480077529049
1692748576825967311,2848,1692748576825967311,,0.01380075792526433
1692748576830798625,2849,1692748576830798625,,0.01509366404994749
1692748576836003303,2850,1692748576836003303,,0.018304841129081824
1692748576840814352,2851,1692748576840814352,,0.01457933665750896
1692748576846032857,2852,1692748576846032857,,0.006355087407870662
1692748576850835800,2853,1692748576850835800,,0.037876593526718794
1692748576856106042,2854,1692748576856106042,,0.008399012614024402
1692748576862109184,2855,1692748576862109184,,0.09930272622286193
1692748576865948200,2856,1692748576865948200,,0.028086723874605042
1692748576870782375,2857,1692748576870782375,,0.03330480722076665
1692748576876020431,2858,1692748576876020431,,0.09371703582597432
1692748576880792617,2859,1692748576880792617,,0.0920789146281015
1692748576885943412,2860,1692748576885943412,,0.09240030477261699
1692748576890771150,2861,1692748576890771150,,0.03772636131986508
1692748576899318933,2862,1692748576899318933,,0.5351767096740286
1692748576903389692,2863,1692748576903389692,,0.3982047077370137
1692748576906245946,2864,1692748576906245946,,0.41897447683351263
1692748576910829544,2865,1692748576910829544,,0.13014503029834285
1692748576915703058,2866,1692748576915703058,,0.04099506406213392
1692748576920972347,2867,1692748576920972347,,0.008258385624903072
1692748576927811622,2868,1692748576927811622,,0.19686299768381868
1692748576930723190,2869,1692748576930723190,,0.04875993827730428
1692748576937708377,2870,1692748576937708377,,0.10795258623557778
1692748576942566871,2871,1692748576942566871,,0.2845919901183277
1692748576946002960,2872,1692748576946002960,,0.06153901464792717
1692748576950828552,2873,1692748576950828552,,0.016588095758896963
1692748576956069469,2874,1692748576956069469,,0.030221782068868802
1692748576960848569,2875,1692748576960848569,,0.012535968409687629
1692748576965692520,2876,1692748576965692520,,0.004677184622086013
1692748576970595598,2877,1692748576970595598,,0.3717537703316247
1692748576975853919,2878,1692748576975853919,,0.10836696513895783
1692748576980734825,2879,1692748576980734825,,0.9512082268913513
1692748576985864400,2880,1692748576985864400,,0.25293385725454665
1692748576991174697,2881,1692748576991174697,,0.3014353566599496
1692748576995946407,2882,1692748576995946407,,0.061909426250021556
1692748577000803232,2883,1692748577000803232,,0.16851447053662155
1692748577005923509,2884,1692748577005923509,,0.036783255953566005
1692748577010745048,2885,1692748577010745048,,0.09337317373744568
1692748577015985965,2886,1692748577015985965,,0.028872824561597225
1692748577020759582,2887,1692748577020759582,,0.018835380576475894
1692748577025962352,2888,1692748577025962352,,0.16530182637154409
1692748577030818700,2889,1692748577030818700,,0.1955214756655938
1692748577036082506,2890,1692748577036082506,,0.4997776943422833
1692748577040827274,2891,1692748577040827274,,0.22394133548061268
1692748577045691967,2892,1692748577045691967,,0.3418679573335154
1692748577051021814,2893,1692748577051021814,,0.09270583869278562
1692748577055792570,2894,1692748577055792570,,0.01956135952968576
1692748577060672521,2895,1692748577060672521,,0.18403354711058217
1692748577066977739,2896,1692748577066977739,,0.044325863522544834
1692748577070670127,2897,1692748577070670127,,0.20406890959372823
1692748577075870990,2898,1692748577075870990,,0.3526460543685538
1692748577080751657,2899,1692748577080751657,,0.07746391970996261
1692748577085865020,2900,1692748577085865020,,0.11518294174042087
1692748577090697050,2901,1692748577090697050,,0.3631348649680207
1692748577095964193,2902,1692748577095964193,,0.09043234662755785
1692748577100753307,2903,1692748577100753307,,0.11260690677395786
1692748577105896472,2904,1692748577105896472,,0.06839866015311456
1692748577110761165,2905,1692748577110761165,,0.3203053404072337
1692748577115994691,2906,1692748577115994691,,0.07632627389002072
1692748577120790958,2907,1692748577120790958,,0.047003442072781634
1692748577134030103,2909,1692748577134030103,,0.10269835672574311
1692748577136096000,2910,1692748577136096000,,0.13630338011553914
1692748577140782833,2911,1692748577140782833,,0.07860381474718087
1692748577146060705,2912,1692748577146060705,,0.13954622797907693
1692748577150829076,2913,1692748577150829076,,0.031726722125742596
1692748577156029224,2914,1692748577156029224,,0.024622844827529838
1692748577160811185,2915,1692748577160811185,,0.014513458180371665
1692748577166073799,2916,1692748577166073799,,0.010608244084809626
1692748577170879840,2917,1692748577170879840,,0.03491294376700288
1692748577175676345,2918,1692748577175676345,,0.006984224208881385
1692748577181003808,2919,1692748577181003808,,0.08527490145696404
1692748577185729026,2920,1692748577185729026,,0.01850974336787162
1692748577190582275,2921,1692748577190582275,,0.014430253881352417
1692748577195828676,2922,1692748577195828676,,0.03361842375359362
1692748577200748682,2923,1692748577200748682,,0.1737657012577401
1692748577211953878,2924,1692748577211953878,,0.11758897882272569
1692748577212568044,2925,1692748577212568044,,0.09542454403222524
1692748577215899705,2926,1692748577215899705,,0.4870594475175158
1692748577220649242,2927,1692748577220649242,,0.4080671003408544
1692748577225884914,2928,1692748577225884914,,0.08189855482867728
1692748577230769157,2929,1692748577230769157,,0.9351455943869031
1692748577235964298,2930,1692748577235964298,,0.19264742888366174
1692748577240763187,2931,1692748577240763187,,0.038914275093870264
1692748577245893955,2932,1692748577245893955,,0.403525106395917
1692748577250770092,2933,1692748577250770092,,0.08075843666417866
1692748577255975484,2934,1692748577255975484,,0.14039569921093692
1692748577260713577,2935,1692748577260713577,,0.4299786841310586
1692748577265965461,2936,1692748577265965461,,0.9556883788522607
1692748577271667480,2937,1692748577271667480,,0.28843256487918195
1692748577276036977,2938,1692748577276036977,,0.09470518629532677
1692748577280961751,2939,1692748577280961751,,0.05591278976141037
1692748577285646915,2940,1692748577285646915,,1.0907600921264902
1692748577290866136,2941,1692748577290866136,,0.3759769615572738
1692748577295672416,2942,1692748577295672416,,0.08063014439068121
1692748577300971031,2943,1692748577300971031,,0.02155089582286638
1692748577309269905,2944,1692748577309269905,,0.04664701445370329
1692748577310604572,2945,1692748577310604572,,0.015326073877433429
1692748577315725088,2946,1692748577315725088,,0.742643575294615
1692748577320595502,2947,1692748577320595502,,2.4400074406061765
1692748577325743436,2948,1692748577325743436,,0.5573503018052619
1692748577330718994,2949,1692748577330718994,,0.14137242047869025
1692748577337305784,2950,1692748577337305784,,0.08144845206152608
1692748577340692520,2951,1692748577340692520,,0.9110696973018909
1692748577345882654,2952,1692748577345882654,,0.18456978999681886
1692748577350750684,2953,1692748577350750684,,0.0371037593398012
1692748577355945587,2954,1692748577355945587,,0.13902932093186282
1692748577362377882,2955,1692748577362377882,,0.2668960614372933
1692748577365839242,2956,1692748577365839242,,0.22624175637687047
1692748577370722770,2957,1692748577370722770,,0.046289500605808956
1692748577375922918,2958,1692748577375922918,,0.014758196888377345
1692748577380768299,2959,1692748577380768299,,0.0036978454621917393
1692748577385930776,2960,1692748577385930776,,0.0417829082184066
1692748577390749692,2961,1692748577390749692,,0.03740716341507287
1692748577395963191,2962,1692748577395963191,,0.062126348027063974
1692748577400815963,2963,1692748577400815963,,0.04291627667675611
1692748577406022071,2964,1692748577406022071,,0.24881575226217112
1692748577410789966,2965,1692748577410789966,,0.10355986870137972
1692748577416278362,2966,1692748577416278362,,0.19176820768098318
1692748577420789003,2967,1692748577420789003,,0.039575574009499896
1692748577429358482,2968,1692748577429358482,,0.010597369930269735
1692748577431721448,2969,1692748577431721448,,0.31774653502857503
1692748577436046838,2970,1692748577436046838,,0.09211602040499664
1692748577440894365,2971,1692748577440894365,,0.0546539403381892
1692748577445676565,2972,1692748577445676565,,0.6293176796393968
1692748577451006650,2973,1692748577451006650,,0.1278296040185141
1692748577459397077,2974,1692748577459397077,,0.05435128643384341
1692748577460707902,2975,1692748577460707902,,0.016833138760961475
1692748577465873718,2976,1692748577465873718,,0.035882307025842664
1692748577470718622,2977,1692748577470718622,,0.10447904802476121
1692748577476603507,2978,1692748577476603507,,0.45628681428062995
1692748577480712175,2979,1692748577480712175,,0.16232837702753097
1692748577485886573,2980,1692748577485886573,,0.03540964952561573
1692748577490727901,2981,1692748577490727901,,0.08871792746673944
1692748577495920419,2982,1692748577495920419,,0.10248166171464346
1692748577500722885,2983,1692748577500722885,,0.023489394188359842
1692748577505864143,2984,1692748577505864143,,0.21228019091176867
1692748577510709047,2985,1692748577510709047,,0.7255742586269214
1692748577515902042,2986,1692748577515902042,,0.31581027263893424
1692748577520720481,2987,1692748577520720481,,1.1694580696026922
1692748577525863885,2988,1692748577525863885,,0.3686913862402064
1692748577530719041,2989,1692748577530719041,,0.07397627761338466
1692748577535672664,2990,1692748577535672664,,0.0842789680400412
1692748577542172431,2991,1692748577542172431,,0.3411789705161521
1692748577546225070,2992,1692748577546225070,,0.6157131364261978
1692748577550640583,2993,1692748577550640583,,0.1291450127442912
1692748577555847406,2994,1692748577555847406,,0.056251599479843165
1692748577560661792,2995,1692748577560661792,,0.20636438306358432
1692748577565886497,2996,1692748577565886497,,0.04168382361319926
1692748577570724725,2997,1692748577570724725,,0.025630387401968935
1692748577575883865,2998,1692748577575883865,,0.18078132483653653
1692748577580761909,2999,1692748577580761909,,0.059373543279235864
1692748577585884571,3000,1692748577585884571,,0.2899517556894106
1692748577590751409,3001,1692748577590751409,,0.07329435650165687
1692748577595957994,3002,1692748577595957994,,0.025278717499283582
1692748577602149486,3003,1692748577602149486,,0.38822542179419556
1692748577605949401,3004,1692748577605949401,,0.6059266290445938
1692748577610740900,3005,1692748577610740900,,0.22893025085914098
1692748577615981340,3006,1692748577615981340,,0.21222147740457853
1692748577620772838,3007,1692748577620772838,,0.07168082986282384
1692748577625973939,3008,1692748577625973939,,0.25483483853487865
1692748577630843400,3009,1692748577630843400,,0.05121738902994462
1692748577635623216,3010,1692748577635623216,,1.3597268081082177
1692748577640955686,3011,1692748577640955686,,0.27209244941055577
1692748577645751714,3012,1692748577645751714,,0.08884742707060012
1692748577650975704,3013,1692748577650975704,,0.018407294221918558
1692748577655822515,3014,1692748577655822515,,0.017165682873561655
1692748577660705566,3015,1692748577660705566,,0.12639611577011636
1692748577665893077,3016,1692748577665893077,,0.2039553435343614
1692748577670742988,3017,1692748577670742988,,0.8861096523423343
1692748577675895214,3018,1692748577675895214,,0.25438545661522394
1692748577681351900,3019,1692748577681351900,,0.05291329330742455
1692748577685931444,3020,1692748577685931444,,0.04284884869800052
1692748577690789222,3021,1692748577690789222,,0.07566341022585327
1692748577696033716,3022,1692748577696033716,,0.019149399676217208
1692748577700842380,3023,1692748577700842380,,0.023329346979479044
1692748577706061363,3024,1692748577706061363,,0.09470013658657897
1692748577710852861,3025,1692748577710852861,,0.029795760153541052
1692748577715678691,3026,1692748577715678691,,0.8135958601298565
1692748577720976352,3027,1692748577720976352,,0.1645616950913841
1692748577725737333,3028,1692748577725737333,,0.34316668326977623
1692748577730686902,3029,1692748577730686902,,0.45533181269182293
1692748577735873699,3030,1692748577735873699,,0.12255865336506896
1692748577740698814,3031,1692748577740698814,,0.04228184065745971
1692748577747054815,3032,1692748577747054815,,0.45549643956574876
1692748577750693798,3033,1692748577750693798,,0.553100383740127
1692748577755895853,3034,1692748577755895853,,0.388162084108063
1692748577760713815,3035,1692748577760713815,,0.07960349649597553
1692748577765629768,3036,1692748577765629768,,0.020851762083446093
1692748577770947694,3037,1692748577770947694,,0.29261691263703077
1692748577775692701,3038,1692748577775692701,,0.06626473393819308
1692748577781031131,3039,1692748577781031131,,0.014625709228398013
1692748577785749435,3040,1692748577785749435,,1.218592628241269
1692748577790620088,3041,1692748577790620088,,0.36447221523468337
1692748577795908689,3042,1692748577795908689,,0.07745877562280183
1692748577800730228,3043,1692748577800730228,,0.049222889365739576
1692748577805850505,3044,1692748577805850505,,0.07737781801802573
1692748577810699462,3045,1692748577810699462,,0.1028938746348689
1692748577815910339,3046,1692748577815910339,,0.07994336984500164
1692748577820694684,3047,1692748577820694684,,0.0252946827471794
1692748577826506853,3048,1692748577826506853,,0.2694035301082987
1692748577830799818,3049,1692748577830799818,,0.05388117276820938
1692748577836020708,3050,1692748577836020708,,0.06897905431527444
1692748577840818881,3051,1692748577840818881,,0.027784627459163276
1692748577846067667,3052,1692748577846067667,,0.6317261996494657
1692748577850933074,3053,1692748577850933074,,0.2922576516681209
1692748577855947971,3054,1692748577855947971,,0.15750940312229572
1692748577860927343,3055,1692748577860927343,,0.03459824992882392
1692748577865709304,3056,1692748577865709304,,3.3399805711257073
1692748577871124029,3057,1692748577871124029,,1.3708438322718064
1692748577879395723,3058,1692748577879395723,,0.28129622883996547
1692748577881049156,3059,1692748577881049156,,0.07192700031958559
1692748577886415004,3060,1692748577886415004,,0.04145961185721675
1692748577890766859,3061,1692748577890766859,,0.09256193207682349
1692748577895969629,3062,1692748577895969629,,0.13133301417984897
1692748577900787830,3063,1692748577900787830,,1.08933879123995
1692748577905930042,3064,1692748577905930042,,1.3816082686337499
1692748577910775184,3065,1692748577910775184,,0.36126960282705145
1692748577915936708,3066,1692748577915936708,,0.07633032399542561
1692748577920740127,3067,1692748577920740127,,0.3052383067007617
1692748577925868988,3068,1692748577925868988,,1.845604061228657
1692748577930767059,3069,1692748577930767059,,0.3707265683614046
1692748577936116456,3070,1692748577936116456,,0.4338322411509113
1692748577940855026,3071,1692748577940855026,,0.2891170431404979
1692748577945690393,3072,1692748577945690393,,0.1819519194099793
1692748577951774358,3073,1692748577951774358,,0.6236276340787968
1692748577955942869,3074,1692748577955942869,,0.16589319073401568
1692748577960635900,3075,1692748577960635900,,0.04702385610857912
1692748577965841293,3076,1692748577965841293,,0.17691550894780592
1692748577970732450,3077,1692748577970732450,,0.05556772652629024
1692748577975887775,3078,1692748577975887775,,0.2536013335673049
1692748577980744123,3079,1692748577980744123,,0.642582520206001
1692748577985857009,3080,1692748577985857009,,0.13652656841215474
1692748577990725994,3081,1692748577990725994,,0.028837150052381348
1692748577995922327,3082,1692748577995922327,,0.17839344395649975
1692748578000780820,3083,1692748578000780820,,0.25603281512957415
1692748578005904197,3084,1692748578005904197,,0.051346159383891886
1692748578010758638,3085,1692748578010758638,,0.02018491066636542
1692748578015942096,3086,1692748578015942096,,0.01179189387410234
1692748578020720243,3087,1692748578020720243,,0.1067715399822219
1692748578025879383,3088,1692748578025879383,,0.42915324950882566
1692748578030784606,3089,1692748578030784606,,0.10960786573695047
1692748578035975456,3090,1692748578035975456,,0.1292394220127864
1692748578040781974,3091,1692748578040781974,,0.12882480926323248
1692748578046072721,3092,1692748578046072721,,0.11268187528293676
1692748578050845384,3093,1692748578050845384,,0.4149092418579813
1692748578055632114,3094,1692748578055632114,,0.10786114666909194
1692748578061003208,3095,1692748578061003208,,1.7874935171775947
1692748578065734863,3096,1692748578065734863,,0.6255271577860944
1692748578070636749,3097,1692748578070636749,,0.253442149453006
1692748578075845479,3098,1692748578075845479,,1.0088983416452733
1692748578080754280,3099,1692748578080754280,,0.2067023090717452
1692748578085888862,3100,1692748578085888862,,0.04300489106069334
1692748578090989351,3101,1692748578090989351,,0.3676063474352159
1692748578095933437,3102,1692748578095933437,,0.2202129126309675
1692748578100998163,3103,1692748578100998163,,0.08769449922856731
1692748578105758905,3104,1692748578105758905,,0.27334653275002446
1692748578110628128,3105,1692748578110628128,,0.18039446202205886
1692748578115890502,3106,1692748578115890502,,0.04006441117125474
1692748578120676517,3107,1692748578120676517,,0.14610578434901142
1692748578125845670,3108,1692748578125845670,,0.0293124479073598
1692748578130716562,3109,1692748578130716562,,0.005863233421436672
1692748578135929107,3110,1692748578135929107,,0.09153101172805143
1692748578140746831,3111,1692748578140746831,,0.12209496552679973
1692748578145892143,3112,1692748578145892143,,0.2335143890521322
1692748578150770425,3113,1692748578150770425,,0.25418260584285535
1692748578156642675,3114,1692748578156642675,,0.14410353478704802
1692748578160742282,3115,1692748578160742282,,0.4954152669250629
1692748578165907621,3116,1692748578165907621,,0.14384016863057306
1692748578170752763,3117,1692748578170752763,,0.05042139921563306
1692748578175925254,3118,1692748578175925254,,0.09475032769648466
1692748578180827140,3119,1692748578180827140,,0.01896809234484367
1692748578185978651,3120,1692748578185978651,,0.02959698822965423
1692748578190773725,3121,1692748578190773725,,0.03979648414235683
1692748578196041584,3122,1692748578196041584,,0.023691693370195714
1692748578200836181,3123,1692748578200836181,,0.03179401809408138
1692748578205624580,3124,1692748578205624580,,0.11979974014183672
1692748578210857868,3125,1692748578210857868,,0.02437352913816423
1692748578216351270,3126,1692748578216351270,,0.8636722486193419
1692748578220730066,3127,1692748578220730066,,0.17276924515823003
1692748578225910902,3128,1692748578225910902,,0.18854502121137026
1692748578230759143,3129,1692748578230759143,,0.0948924539273403
1692748578236006259,3130,1692748578236006259,,0.12988230956236335
1692748578240823745,3131,1692748578240823745,,0.053866966429226684
1692748578246026992,3132,1692748578246026992,,0.7237644060672128
1692748578250875473,3133,1692748578250875473,,0.47435366431905024
1692748578255647897,3134,1692748578255647897,,0.5837049740137473
1692748578260801076,3135,1692748578260801076,,0.14102678501103252
1692748578265888452,3136,1692748578265888452,,0.029030736757703218
1692748578270703792,3137,1692748578270703792,,0.034036563180235235
1692748578275903701,3138,1692748578275903701,,0.01354038101134786
1692748578280740261,3139,1692748578280740261,,0.19710655882751218
1692748578285503387,3140,1692748578285503387,,0.24275526709928946
1692748578290794134,3141,1692748578290794134,,0.2451076141965755
1692748578295758962,3142,1692748578295758962,,0.08236256332646968
1692748578300735235,3143,1692748578300735235,,0.019352616391601983
1692748578305924654,3144,1692748578305924654,,0.12922966909385314
1692748578310746908,3145,1692748578310746908,,0.06949355428574996
1692748578315633058,3146,1692748578315633058,,0.09899735752161075
1692748578321049690,3147,1692748578321049690,,0.04811579219806612
1692748578325698614,3148,1692748578325698614,,0.009644798414651516
1692748578330827236,3149,1692748578330827236,,0.005312720556487296
1692748578335646152,3150,1692748578335646152,,0.03913868781974473
1692748578341083288,3151,1692748578341083288,,0.03164012517646526
1692748578345752000,3152,1692748578345752000,,0.08876451001193877
1692748578350612878,3153,1692748578350612878,,0.01839221840887494
1692748578355867147,3154,1692748578355867147,,0.10191877679636228
1692748578361464262,3155,1692748578361464262,,0.02060787058190903
1692748578365836620,3156,1692748578365836620,,0.2606996697006703
1692748578370694875,3157,1692748578370694875,,0.09559609459191165
1692748578375895977,3158,1692748578375895977,,0.12080433562436779
1692748578380749464,3159,1692748578380749464,,0.08420671731703433
1692748578385893583,3160,1692748578385893583,,0.04831761101511574
1692748578390744924,3161,1692748578390744924,,0.15836556718652017
1692748578396325349,3162,1692748578396325349,,0.2231480939841297
1692748578400808095,3163,1692748578400808095,,0.09894518678779153
1692748578406011343,3164,1692748578406011343,,0.02501088830334515
1692748578410822391,3165,1692748578410822391,,0.1571653105838875
1692748578415652036,3166,1692748578415652036,,0.04774126030956127
1692748578420937061,3167,1692748578420937061,,0.03594243940278321
1692748578425733089,3168,1692748578425733089,,0.15976366707309755
1692748578430638551,3169,1692748578430638551,,0.057059199881386524
1692748578435913801,3170,1692748578435913801,,0.01565716584551488
1692748578440687179,3171,1692748578440687179,,0.013640297761983214
1692748578449388265,3172,1692748578449388265,,0.002821352543366898
1692748578450718641,3173,1692748578450718641,,0.008780236085899245
1692748578455904960,3174,1692748578455904960,,0.12589559988104418
1692748578460718870,3175,1692748578460718870,,0.30166477970508476
1692748578465962648,3176,1692748578465962648,,0.09831820602004887
1692748578470775127,3177,1692748578470775127,,0.059392587432499
1692748578479262113,3178,1692748578479262113,,0.10720628563173053
1692748578481070041,3179,1692748578481070041,,0.3567125329627087
1692748578485916614,3180,1692748578485916614,,0.24204916139241522
1692748578490731239,3181,1692748578490731239,,0.04877536403378223
1692748578496061086,3182,1692748578496061086,,0.0636869110351386
1692748578500851392,3183,1692748578500851392,,0.19224379996617078
1692748578509303331,3184,1692748578509303331,,0.1103298505388734
1692748578511652469,3185,1692748578511652469,,0.06557887408637744
1692748578516029596,3186,1692748578516029596,,0.09679134039218278
1692748578520819664,3187,1692748578520819664,,0.4550221830620564
1692748578525583982,3188,1692748578525583982,,0.10445728133766023
1692748578530912876,3189,1692748578530912876,,0.07905805035128145
1692748578535635471,3190,1692748578535635471,,0.016162057749168856
1692748578540507078,3191,1692748578540507078,,0.801061854969759
1692748578545716285,3192,1692748578545716285,,0.2124682383881078
1692748578550548315,3193,1692748578550548315,,0.05618735478545696
1692748578555808067,3194,1692748578555808067,,0.012351784655704783
1692748578560624599,3195,1692748578560624599,,0.17189982273166715
1692748578566787958,3196,1692748578566787958,,0.04717091539485985
1692748578570700883,3197,1692748578570700883,,0.060412469362518026
1692748578575887203,3198,1692748578575887203,,0.012362559950875124
1692748578580711126,3199,1692748578580711126,,0.003527011560421179
1692748578585889101,3200,1692748578585889101,,0.00462329856645473
1692748578590707302,3201,1692748578590707302,,0.001085959869977278
1692748578595557689,3202,1692748578595557689,,0.21696558975005517
1692748578600834846,3203,1692748578600834846,,2.047273525983126
1692748578605706691,3204,1692748578605706691,,0.5524335063397844
1692748578610480785,3205,1692748578610480785,,0.21143894454585332
1692748578615854263,3206,1692748578615854263,,0.18544441322616803
1692748578622130155,3207,1692748578622130155,,0.7928348474250037
1692748578626058340,3208,1692748578626058340,,0.16995726629638458
1692748578630932569,3209,1692748578630932569,,0.05832526284111667
1692748578635698080,3210,1692748578635698080,,0.018225280220190845
1692748578640938758,3211,1692748578640938758,,0.02710042767689065
1692748578646200895,3212,1692748578646200895,,0.2461958576852008
1692748578650601625,3213,1692748578650601625,,0.5611632295818247
1692748578655853986,3214,1692748578655853986,,1.195457948250787
1692748578660670280,3215,1692748578660670280,,0.6393046016605046
1692748578670973300,3217,1692748578670973300,,0.05894698244632578
1692748578675686120,3218,1692748578675686120,,0.16480242868034192
1692748578680987119,3219,1692748578680987119,,0.7075532067633602
1692748578685731172,3220,1692748578685731172,,3.364903280151445
1692748578690602540,3221,1692748578690602540,,0.6945926219346907
1692748578695863485,3222,1692748578695863485,,1.0260397012213538
1692748578700670480,3223,1692748578700670480,,0.20851635196250323
1692748578705856800,3224,1692748578705856800,,0.04173961621814164
1692748578710664033,3225,1692748578710664033,,0.008901032279691717
1692748578715933084,3226,1692748578715933084,,0.019699513648178627
1692748578720726013,3227,1692748578720726013,,0.011956456298440003
1692748578725954294,3228,1692748578725954294,,0.01001674204859631
1692748578730824470,3229,1692748578730824470,,0.15751453908272842
1692748578735658407,3230,1692748578735658407,,0.04123127266707043
1692748578740788698,3231,1692748578740788698,,0.015221336293744015
1692748578746014118,3232,1692748578746014118,,0.16923929471576754
1692748578750797510,3233,1692748578750797510,,0.23453759139421482
1692748578756053686,3234,1692748578756053686,,0.08312183866502357
1692748578760865449,3235,1692748578760865449,,0.020191239846559562
1692748578766200065,3236,1692748578766200065,,0.02163433635159475
1692748578771025896,3237,1692748578771025896,,0.012844082352921525
1692748578775785684,3238,1692748578775785684,,1.875242343926787
1692748578780641555,3239,1692748578780641555,,1.1583549594857416
1692748578785835027,3240,1692748578785835027,,1.5593843080291507
1692748578790657758,3241,1692748578790657758,,0.7597062922086747
1692748578796086549,3242,1692748578796086549,,0.6799506398790502
1692748578800773382,3243,1692748578800773382,,0.24921082316489862
1692748578807788610,3244,1692748578807788610,,0.4035873009487759
1692748578811194181,3245,1692748578811194181,,0.4642487128448096
1692748578816005945,3246,1692748578816005945,,0.8954869644382787
1692748578820769786,3247,1692748578820769786,,1.1140585177766393
1692748578826009035,3248,1692748578826009035,,0.22564630657332352
1692748578830864906,3249,1692748578830864906,,0.1357724102423961
1692748578835789203,3250,1692748578835789203,,0.03426571545753837
1692748578841022968,3251,1692748578841022968,,0.02876783578402007
1692748578845778942,3252,1692748578845778942,,0.07676158009205167
1692748578850636482,3253,1692748578850636482,,0.04619890526488518
1692748578855886220,3254,1692748578855886220,,0.04391740204680123
1692748578860677719,3255,1692748578860677719,,0.2516012003356258
1692748578865918159,3256,1692748578865918159,,0.050559547576816556
1692748578873395681,3257,1692748578873395681,,0.04858897122970285
1692748578875905275,3258,1692748578875905275,,1.4634651137068222
1692748578880767583,3259,1692748578880767583,,0.36620973801847645
1692748578885923862,3260,1692748578885923862,,0.11016766038753417
1692748578890757322,3261,1692748578890757322,,0.02347799174105871
1692748578896114349,3262,1692748578896114349,,0.33200663112844847
1692748578900879621,3263,1692748578900879621,,0.14552167623788936
1692748578905697584,3264,1692748578905697584,,0.3797596389183686
1692748578910969972,3265,1692748578910969972,,0.17718514060778218
1692748578915881156,3266,1692748578915881156,,0.05248977825351286
1692748578920633792,3267,1692748578920633792,,0.0265142411083702
1692748578925845623,3268,1692748578925845623,,0.0907045361754478
1692748578930721521,3269,1692748578930721521,,1.6277233425372626
1692748578936023473,3270,1692748578936023473,,1.6340298858101794
1692748578940770626,3271,1692748578940770626,,0.3277128625971523
1692748578946040391,3272,1692748578946040391,,0.06816179698616691
1692748578950833559,3273,1692748578950833559,,1.2368426955849632
1692748578955656051,3274,1692748578955656051,,0.3028030082231523
1692748578960941314,3275,1692748578960941314,,0.2294805070669022
1692748578965756654,3276,1692748578965756654,,0.2671992666431467
1692748578970661163,3277,1692748578970661163,,0.26302456845581346
1692748578975878238,3278,1692748578975878238,,0.5276826242009826
1692748578980688571,3279,1692748578980688571,,0.5322041219148346
1692748578985882997,3280,1692748578985882997,,0.11125913991974484
1692748578990731239,3281,1692748578990731239,,0.42810141069433144
1692748578995938777,3282,1692748578995938777,,0.5271134239312836
1692748579000753879,3283,1692748579000753879,,0.12589185845044895
1692748579005991458,3284,1692748579005991458,,0.030533372474479577
1692748579012521028,3285,1692748579012521028,,0.1143381395520783
1692748579015876293,3286,1692748579015876293,,1.500229493694299
1692748579020708560,3287,1692748579020708560,,0.3179419547176512
1692748579025869607,3288,1692748579025869607,,0.1976755640227838
1692748579030738592,3289,1692748579030738592,,0.05764613242666009
1692748579035961866,3290,1692748579035961866,,0.026215605870501847
1692748579040798664,3291,1692748579040798664,,0.09652198380456417
1692748579046011924,3292,1692748579046011924,,0.3050801041863073
1692748579050796747,3293,1692748579050796747,,0.11445380070760122
1692748579056092262,3294,1692748579056092262,,0.16790513861859824
1692748579060889482,3295,1692748579060889482,,0.10928142789845105
1692748579065742731,3296,1692748579065742731,,1.8319613836664503
1692748579070959091,3297,1692748579070959091,,0.5568466369682461
1692748579078320741,3298,1692748579078320741,,0.2625909626896219
1692748579080787181,3299,1692748579080787181,,0.6031623959746604
1692748579085993289,3300,1692748579085993289,,0.3292256943831371
1692748579090789556,3301,1692748579090789556,,0.06602307846769995
1692748579096028089,3302,1692748579096028089,,0.457855530626956
1692748579100898265,3303,1692748579100898265,,1.0650954417076783
1692748579105606794,3304,1692748579105606794,,0.9516823394546665
1692748579110877513,3305,1692748579110877513,,0.513127379880513
1692748579115698099,3306,1692748579115698099,,0.1737845701860647
1692748579120939016,3307,1692748579120939016,,0.0965805949011141
1692748579125709772,3308,1692748579125709772,,0.146305572959256
1692748579130628108,3309,1692748579130628108,,0.08154849468193458
1692748579135881423,3310,1692748579135881423,,0.1041144659961919
1692748579140685558,3311,1692748579140685558,,0.022436869682234958
1692748579146112442,3312,1692748579146112442,,0.712580943044821
1692748579150705337,3313,1692748579150705337,,1.3770929430514292
1692748579155906915,3314,1692748579155906915,,0.7995763051480189
1692748579160692214,3315,1692748579160692214,,0.5975246023380284
1692748579165932178,3316,1692748579165932178,,1.2083898405972158
1692748579170741796,3317,1692748579170741796,,0.679766343507555
1692748579175954103,3318,1692748579175954103,,2.0415672697489975
1692748579180751562,3319,1692748579180751562,,0.4428873063872939
1692748579185825586,3320,1692748579185825586,,0.17096076583637654
1692748579190635681,3321,1692748579190635681,,0.37939308062234545
1692748579195873975,3322,1692748579195873975,,2.4822185621004653
1692748579200726032,3323,1692748579200726032,,0.6815611718732415
1692748579205869674,3324,1692748579205869674,,0.681563690975799
1692748579210718393,3325,1692748579210718393,,0.14515203135631094
1692748579217403411,3326,1692748579217403411,,0.038341393978076635
1692748579220798730,3327,1692748579220798730,,1.3848857832389252
1692748579225986957,3328,1692748579225986957,,3.8596501653829876
1692748579230835437,3329,1692748579230835437,,1.1668719275438717
1692748579235647678,3330,1692748579235647678,,0.25234180121799243
1692748579240894794,3331,1692748579240894794,,1.99889513811017
1692748579245701789,3332,1692748579245701789,,4.662912996042852
1692748579250995397,3333,1692748579250995397,,2.0066384556532157
1692748579255723237,3334,1692748579255723237,,1.375825119095152
1692748579260613441,3335,1692748579260613441,,0.8977436102722731
1692748579265831947,3336,1692748579265831947,,0.324214359932237
1692748579270706176,3337,1692748579270706176,,0.5906788453957444
1692748579275877714,3338,1692748579275877714,,0.7211637222326162
1692748579283087968,3339,1692748579283087968,,0.3075282492750284
1692748579286071777,3340,1692748579286071777,,0.25954144438696963
1692748579290843725,3341,1692748579290843725,,0.24414432735967
1692748579295649051,3342,1692748579295649051,,2.122390876736936
1692748579300952672,3343,1692748579300952672,,0.595291696159826
1692748579305917739,3344,1692748579305917739,,4.072680751035333
1692748579310903310,3345,1692748579310903310,,1.9035722438237235
1692748579315768241,3346,1692748579315768241,,0.3873727352991618
1692748579320594787,3347,1692748579320594787,,0.12329090946324937
1692748579325807571,3348,1692748579325807571,,1.7509402055788548
1692748579330699443,3349,1692748579330699443,,0.5691806759529281
1692748579335946083,3350,1692748579335946083,,0.18447355871382654
1692748579340832948,3351,1692748579340832948,,0.10979611238952133
1692748579345951795,3352,1692748579345951795,,1.0136419307875404
1692748579350938796,3353,1692748579350938796,,0.30883150284380745
1692748579356032848,3354,1692748579356032848,,0.1819760855694911
1692748579361078262,3355,1692748579361078262,,0.523347960088578
1692748579365674972,3356,1692748579365674972,,1.8198007497783812
1692748579370976448,3357,1692748579370976448,,2.5822362534589165
1692748579375838994,3358,1692748579375838994,,0.8231133790440606
1692748579381124258,3359,1692748579381124258,,0.17900517581904973
1692748579385828256,3360,1692748579385828256,,0.09652428722149003
1692748579390699863,3361,1692748579390699863,,0.9103163478782048
1692748579395938396,3362,1692748579395938396,,1.201888724444344
1692748579400736570,3363,1692748579400736570,,3.5825827030699586
1692748579405897617,3364,1692748579405897617,,5.026682115797438
1692748579410739660,3365,1692748579410739660,,1.0137388692800364
1692748579415966987,3366,1692748579415966987,,0.8706527375008336
1692748579422069072,3367,1692748579422069072,,0.2000290037488654
1692748579425845623,3368,1692748579425845623,,0.08166605104860056
1692748579430759191,3369,1692748579430759191,,6.677983219513907
1692748579435913562,3370,1692748579435913562,,1.6681557092188402
1692748579440747499,3371,1692748579440747499,,0.3340763464460483
1692748579445939540,3372,1692748579445939540,,0.0902630217708916
1692748579450778722,3373,1692748579450778722,,0.15022127760074988
1692748579456035852,3374,1692748579456035852,,3.51664449898258
1692748579460838317,3375,1692748579460838317,,0.7222194226288275
1692748579465611934,3376,1692748579465611934,,1.866043527930104
1692748579470877408,3377,1692748579470877408,,3.0123613983585145
1692748579475676059,3378,1692748579475676059,,0.6135842230485771
1692748579480994462,3379,1692748579480994462,,0.16746452697603645
1692748579488018989,3380,1692748579488018989,,2.9158821686573195
1692748579490706443,3381,1692748579490706443,,1.169192967866499
1692748579495985746,3382,1692748579495985746,,0.2347950830140045
1692748579500747442,3383,1692748579500747442,,1.6568793572438627
1692748579505936145,3384,1692748579505936145,,1.2655584181611277
1692748579510744810,3385,1692748579510744810,,1.4119179986414059
1692748579516035318,3386,1692748579516035318,,0.45860915926342216
1692748579520807266,3387,1692748579520807266,,0.4072352141311759
1692748579525591850,3388,1692748579525591850,,1.1706118647017447
1692748579530925035,3389,1692748579530925035,,4.052495318111118
1692748579535621166,3390,1692748579535621166,,0.8149510283323103
1692748579540938854,3391,1692748579540938854,,2.03195837954362
1692748579545748710,3392,1692748579545748710,,1.1451648276386508
1692748579550577402,3393,1692748579550577402,,0.7969355011836241
1692748579555845737,3394,1692748579555845737,,1.9664287807392904
1692748579560928821,3395,1692748579560928821,,0.6447076135378494
1692748579565868616,3396,1692748579565868616,,0.48693296470925373
1692748579571052074,3397,1692748579571052074,,0.9702671256449003
1692748579576067924,3398,1692748579576067924,,0.3040505269365362
1692748579580790996,3399,1692748579580790996,,2.250245439742131
1692748579585547208,3400,1692748579585547208,,3.4159700110764395
1692748579591045618,3401,1692748579591045618,,2.6361129015917406
1692748579595889806,3402,1692748579595889806,,6.20919875841097
1692748579600984096,3403,1692748579600984096,,3.1713382061281346
1692748579605698823,3404,1692748579605698823,,1.628205518934257
1692748579610527992,3405,1692748579610527992,,2.7468179628710194
1692748579615905761,3406,1692748579615905761,,0.6227881021520146
1692748579620642900,3407,1692748579620642900,,4.888890903150914
1692748579626937866,3408,1692748579626937866,,7.48763719337346
1692748579630587577,3409,1692748579630587577,,3.4981908093745244
1692748579635873794,3410,1692748579635873794,,4.110312731189456
1692748579640667676,3411,1692748579640667676,,0.9398989859399106
1692748579645875215,3412,1692748579645875215,,0.3230441432660505
1692748579651195049,3413,1692748579651195049,,0.9306886878974721
1692748579655876874,3414,1692748579655876874,,3.9177877513414194
1692748579660688638,3415,1692748579660688638,,0.9884436685251423
1692748579665963888,3416,1692748579665963888,,0.9089872332472159
1692748579670726060,3417,1692748579670726060,,0.18183520536913086
1692748579675948619,3418,1692748579675948619,,0.10838712746809315
1692748579680802822,3419,1692748579680802822,,2.1812337830530453
1692748579685969829,3420,1692748579685969829,,0.7397320093727058
1692748579692670345,3421,1692748579692670345,,1.0224831787280375
1692748579695992946,3422,1692748579695992946,,0.6731935565370752
1692748579700773477,3423,1692748579700773477,,1.230918235819644
1692748579705961227,3424,1692748579705961227,,0.3406628910531934
1692748579710769414,3425,1692748579710769414,,0.22193567434251465
1692748579716081142,3426,1692748579716081142,,1.1833542883469452
1692748579720874786,3427,1692748579720874786,,0.5810306660318967
1692748579725659132,3428,1692748579725659132,,2.7172303558032085
1692748579731014728,3429,1692748579731014728,,14.521410549907808
1692748579735822677,3430,1692748579735822677,,4.342845615416064
1692748579740645647,3431,1692748579740645647,,3.165893595125802
1692748579745845556,3432,1692748579745845556,,3.8533582656682186
1692748579750688552,3433,1692748579750688552,,2.8103067411831
1692748579755935907,3434,1692748579755935907,,0.6251447844393176
1692748579760763406,3435,1692748579760763406,,2.7704866110473727
1692748579765964269,3436,1692748579765964269,,0.7871141719039025
1692748579770786285,3437,1692748579770786285,,0.18353469784471924
1692748579776039838,3438,1692748579776039838,,0.584571580853509
1692748579780878543,3439,1692748579780878543,,1.6013000681361336
1692748579785661935,3440,1692748579785661935,,0.7182510646198698
1692748579791199445,3441,1692748579791199445,,0.22806489053671414
1692748579795904874,3442,1692748579795904874,,2.5079762740148577
1692748579800658941,3443,1692748579800658941,,2.415274675296785
1692748579805814266,3444,1692748579805814266,,0.7208951332365322
1692748579810682296,3445,1692748579810682296,,0.14789236429329908
1692748579815908670,3446,1692748579815908670,,3.7086095922230387
1692748579820741176,3447,1692748579820741176,,3.0434830154438197
1692748579825924873,3448,1692748579825924873,,5.429890826756895
1692748579831713438,3449,1692748579831713438,,8.720581989967249
1692748579836022615,3450,1692748579836022615,,12.393358484325134
1692748579840935707,3451,1692748579840935707,,4.02418925585276
1692748579846094608,3452,1692748579846094608,,0.8285258440328948
1692748579850887775,3453,1692748579850887775,,1.741126773977213
1692748579856287717,3454,1692748579856287717,,1.5225833153363226
1692748579860870122,3455,1692748579860870122,,0.954441411656365
1692748579866485834,3456,1692748579866485834,,4.399826658378088
1692748579870901584,3457,1692748579870901584,,2.0610336091648302
1692748579875644445,3458,1692748579875644445,,1.941933202734601
1692748579881005764,3459,1692748579881005764,,1.0450680956692864
1692748579885798215,3460,1692748579885798215,,0.6274211743965256
1692748579890635490,3461,1692748579890635490,,0.9865256158734328
1692748579897571802,3462,1692748579897571802,,0.8731515887072545
1692748579901071786,3463,1692748579901071786,,0.22276840228126676
1692748579905799865,3464,1692748579905799865,,0.10082201253619302
1692748579910675287,3465,1692748579910675287,,0.41030010928056804
1692748579915910243,3466,1692748579915910243,,1.1429958044965962
1692748579920725822,3467,1692748579920725822,,4.8274265756006605
1692748579925872802,3468,1692748579925872802,,0.9768200603206002
1692748579930758714,3469,1692748579930758714,,1.7758930806548172
1692748579936035871,3470,1692748579936035871,,1.3696855549960198
1692748579940806388,3471,1692748579940806388,,1.072713144015354
1692748579945659637,3472,1692748579945659637,,2.7900180082419284
1692748579950920104,3473,1692748579950920104,,1.2465281672848705
1692748579955785512,3474,1692748579955785512,,1.717194501131298
1692748579960576295,3475,1692748579960576295,,2.622690623128682
1692748579965812206,3476,1692748579965812206,,0.5990776788936037
1692748579970655918,3477,1692748579970655918,,3.252388212010462
1692748579975883483,3478,1692748579975883483,,6.375116906631105
1692748579980699062,3479,1692748579980699062,,3.3918751758423946
1692748579985916376,3480,1692748579985916376,,2.0497150591801425
1692748579990754604,3481,1692748579990754604,,1.5033064805760081
1692748579996024847,3482,1692748579996024847,,0.9505976338765533
1692748580000847578,3483,1692748580000847578,,0.653226118476268
1692748580005604982,3484,1692748580005604982,,0.5409337965983672
1692748580010898113,3485,1692748580010898113,,1.4716180632898677
1692748580015620708,3486,1692748580015620708,,2.5069790276309805
1692748580020872116,3487,1692748580020872116,,1.0857246481190623
1692748580025630712,3488,1692748580025630712,,2.1858404986625604
1692748580030484676,3489,1692748580030484676,,2.649627047006793
1692748580036415576,3490,1692748580036415576,,0.5430747432331761
1692748580040528535,3491,1692748580040528535,,0.11490040231066873
1692748580045898675,3492,1692748580045898675,,5.858166137608595
1692748580050704240,3493,1692748580050704240,,3.815766974476164
1692748580055898904,3494,1692748580055898904,,3.6557228584331307
1692748580060771465,3495,1692748580060771465,,0.737082132049079
1692748580065991640,3496,1692748580065991640,,0.3866303105843159
1692748580070739507,3497,1692748580070739507,,1.5301996169008452
1692748580076009035,3498,1692748580076009035,,2.6086691733878857
1692748580080848693,3499,1692748580080848693,,5.258873289502561
1692748580085602760,3500,1692748580085602760,,7.177133028206267
1692748580090925931,3501,1692748580090925931,,5.874636757134541
1692748580096058368,3502,1692748580096058368,,2.195842428331271
1692748580102375507,3503,1692748580102375507,,0.7942030819250415
1692748580106071710,3504,1692748580106071710,,1.4257317857246743
1692748580110853910,3505,1692748580110853910,,0.3559426027317276
1692748580116153955,3506,1692748580116153955,,0.2582517100969455
1692748580120937585,3507,1692748580120937585,,0.2620049506133932
1692748580125765562,3508,1692748580125765562,,0.429010441713824
1692748580130620718,3509,1692748580130620718,,0.15087400825503533
1692748580135856628,3510,1692748580135856628,,1.046062041343165
1692748580140688896,3511,1692748580140688896,,4.2857021744796295
1692748580145930290,3512,1692748580145930290,,1.8915368468884726
1692748580150715351,3513,1692748580150715351,,2.9336782842368048
1692748580155948400,3514,1692748580155948400,,1.6460634807874381
1692748580160759925,3515,1692748580160759925,,7.351862427144511
1692748580166003704,3516,1692748580166003704,,2.4010685569920396
1692748580170796394,3517,1692748580170796394,,0.6562614862526375
1692748580176069736,3518,1692748580176069736,,0.1697661348370598
1692748580180878162,3519,1692748580180878162,,0.9608205802698353
1692748580185654163,3520,1692748580185654163,,4.725242470743225
1692748580190926074,3521,1692748580190926074,,0.9571090727314657
1692748580195761919,3522,1692748580195761919,,0.5892567866798077
1692748580200601577,3523,1692748580200601577,,0.4001703414625074
1692748580205828428,3524,1692748580205828428,,2.6587884164847373
1692748580210634231,3525,1692748580210634231,,0.6180157106535561
1692748580215873241,3526,1692748580215873241,,0.9537639896614553
1692748580220690250,3527,1692748580220690250,,0.5339213135213183
1692748580225934505,3528,1692748580225934505,,0.1780112964182864
1692748580230952501,3529,1692748580230952501,,7.5067978787158625
1692748580236113309,3530,1692748580236113309,,2.096052942203447
1692748580241278648,3531,1692748580241278648,,0.4698909654758914
1692748580245653867,3532,1692748580245653867,,0.18635280205416405
1692748580250942945,3533,1692748580250942945,,4.083789967483877
1692748580255784034,3534,1692748580255784034,,1.6348258323264462
1692748580260615348,3535,1692748580260615348,,0.32868095133285385
1692748580265932321,3536,1692748580265932321,,3.3041460140449894
1692748580270699739,3537,1692748580270699739,,2.1970972027817393
1692748580275899887,3538,1692748580275899887,,1.702189972432952
1692748580280728816,3539,1692748580280728816,,0.4455414222668052
1692748580285888195,3540,1692748580285888195,,2.1763208423164064
1692748580290707826,3541,1692748580290707826,,3.031537300953514
1692748580295925140,3542,1692748580295925140,,1.4994272293614361
1692748580300762891,3543,1692748580300762891,,1.2403779233116095
1692748580307109117,3544,1692748580307109117,,0.7964629154591173
1692748580310796260,3545,1692748580310796260,,0.6643038070128083
1692748580316023588,3546,1692748580316023588,,1.2302920052609085
1692748580320842742,3547,1692748580320842742,,7.251635194216732
1692748580325613975,3548,1692748580325613975,,5.433836288986521
1692748580330973625,3549,1692748580330973625,,1.714409182631465
1692748580335840940,3550,1692748580335840940,,4.040749010087073
1692748580340642213,3551,1692748580340642213,,1.3693478865647641
1692748580345973253,3552,1692748580345973253,,3.7229003627844452
1692748580350679636,3553,1692748580350679636,,4.2863686070278195
1692748580355840682,3554,1692748580355840682,,1.673213149073542
1692748580360593318,3555,1692748580360593318,,0.8299208559514523
1692748580365793704,3556,1692748580365793704,,1.5062779918537468
1692748580370615959,3557,1692748580370615959,,1.5971512719837295
1692748580375992536,3558,1692748580375992536,,3.0236240369552725
1692748580381723880,3559,1692748580381723880,,8.535159558812556
1692748580385917425,3560,1692748580385917425,,5.710285419365288
1692748580390774011,3561,1692748580390774011,,3.081573870561044
1692748580395546913,3562,1692748580395546913,,1.2287814739311802
1692748580401241302,3563,1692748580401241302,,0.33229102557823664
1692748580405604839,3564,1692748580405604839,,1.0215052909280629
1692748580410479307,3565,1692748580410479307,,0.5273732382027679
1692748580415679454,3566,1692748580415679454,,0.11048522489089475
1692748580420527696,3567,1692748580420527696,,3.481118871483557
1692748580425711393,3568,1692748580425711393,,1.2574063585579283
1692748580430638313,3569,1692748580430638313,,0.7882700421417235
1692748580435889005,3570,1692748580435889005,,0.7751930117117956
1692748580440677165,3571,1692748580440677165,,0.17218864399281733
1692748580446134567,3572,1692748580446134567,,1.1302943576117812
1692748580450669765,3573,1692748580450669765,,0.29270670132492727
1692748580455911159,3574,1692748580455911159,,0.5310358174893567
1692748580460732698,3575,1692748580460732698,,1.4494031419207927
1692748580465546131,3576,1692748580465546131,,0.6584569028267941
1692748580470842123,3577,1692748580470842123,,0.9583172395868669
1692748580475587606,3578,1692748580475587606,,0.620883087340936
1692748580480449438,3579,1692748580480449438,,0.44057230158631344
1692748580485843658,3580,1692748580485843658,,0.48890404032214296
1692748580490630388,3581,1692748580490630388,,0.6481752151320715
1692748580495887279,3582,1692748580495887279,,3.0268613362244507
1692748580500669002,3583,1692748580500669002,,2.327279957024687
1692748580505832433,3584,1692748580505832433,,1.3815495828448026
1692748580511971950,3585,1692748580511971950,,0.2763182416601295
1692748580515798330,3586,1692748580515798330,,0.7943311445127693
1692748580520570993,3587,1692748580520570993,,0.9778310105896377
1692748580525801181,3588,1692748580525801181,,2.0088871036581857
1692748580530661106,3589,1692748580530661106,,0.4269898653365908
1692748580535881996,3590,1692748580535881996,,2.108153916280134
1692748580540692806,3591,1692748580540692806,,0.42597655324387373
1692748580545900106,3592,1692748580545900106,,1.2690641610946884
1692748580550566673,3593,1692748580550566673,,0.8269659968465038
1692748580555830240,3594,1692748580555830240,,0.48860443599074965
1692748580560672283,3595,1692748580560672283,,0.10009278532920937
1692748580565851688,3596,1692748580565851688,,0.23538466131711855
1692748580571001291,3597,1692748580571001291,,1.2223505468567095
1692748580575925350,3598,1692748580575925350,,2.2993045603835403
1692748580580863952,3599,1692748580580863952,,0.9792505062269936
1692748580585590124,3600,1692748580585590124,,10.152326650404722
1692748580590776681,3601,1692748580590776681,,6.162144727303472
1692748580595561981,3602,1692748580595561981,,2.94995147314569
1692748580601002693,3603,1692748580601002693,,2.8645519216950546
1692748580607301473,3604,1692748580607301473,,6.744806056813255
1692748580614333868,3605,1692748580614333868,,2.4548788917161826
1692748580616309642,3606,1692748580616309642,,0.8436591155695998
1692748580620816707,3607,1692748580620816707,,0.1879829489712357
1692748580625622987,3608,1692748580625622987,,3.0277107668126697
1692748580631089210,3609,1692748580631089210,,1.995546582488928
1692748580636588811,3610,1692748580636588811,,0.5432944162501935
1692748580640569448,3611,1692748580640569448,,1.0902648745375347
1692748580645826101,3612,1692748580645826101,,1.5875817212995793
1692748580651831865,3613,1692748580651831865,,0.31912423681693775
1692748580656219720,3614,1692748580656219720,,0.7278429485735022
1692748580660675764,3615,1692748580660675764,,0.1593381027490625
1692748580665849685,3616,1692748580665849685,,0.2821220439337155
1692748580670690774,3617,1692748580670690774,,0.06108806463173819
1692748580675899982,3618,1692748580675899982,,1.5974933530805537
1692748580680665016,3619,1692748580680665016,,3.1622171135327495
1692748580685849189,3620,1692748580685849189,,1.0167879321378095
1692748580690638303,3621,1692748580690638303,,2.910702348914222
1692748580695828676,3622,1692748580695828676,,7.258842181708787
1692748580700634479,3623,1692748580700634479,,1.543455287181516
1692748580705794572,3624,1692748580705794572,,0.5812317431668477
1692748580710637807,3625,1692748580710637807,,0.15308134852934202
1692748580716618776,3626,1692748580716618776,,0.06358334773870658
1692748580720659971,3627,1692748580720659971,,0.025526343609650712
1692748580725459337,3628,1692748580725459337,,1.8998802291669654
1692748580730762004,3629,1692748580730762004,,0.8065311724791517
1692748580735544919,3630,1692748580735544919,,2.8189515974424175
1692748580740849494,3631,1692748580740849494,,1.219319040554829
1692748580745661735,3632,1692748580745661735,,0.2874004061955542
1692748580750463008,3633,1692748580750463008,,0.05752356146766872
1692748580755648851,3634,1692748580755648851,,0.048609168792084156
1692748580763192653,3635,1692748580763192653,,0.029504448487003555
1692748580765609264,3636,1692748580765609264,,0.008461730843527856
1692748580770498514,3637,1692748580770498514,,1.0141972692203793
1692748580775666475,3638,1692748580775666475,,1.2629976959687617
1692748580782366514,3639,1692748580782366514,,0.2924053485783101
1692748580785608291,3640,1692748580785608291,,0.12374130206779824
1692748580790432453,3641,1692748580790432453,,0.5087346918690138
1692748580795610904,3642,1692748580795610904,,0.10799163695255726
1692748580800457477,3643,1692748580800457477,,0.18134977923055906
1692748580805648803,3644,1692748580805648803,,0.05768422098247407
1692748580810467958,3645,1692748580810467958,,0.16202109155003394
1692748580815648078,3646,1692748580815648078,,0.036186688034228885
1692748580820807695,3647,1692748580820807695,,0.018458258069871496
1692748580825695037,3648,1692748580825695037,,0.006201546757288458
1692748580830485820,3649,1692748580830485820,,0.16983303836310765
1692748580835624217,3650,1692748580835624217,,0.2045903323819077
1692748580846069574,3651,1692748580846069574,,0.2681586689503349
1692748580846512317,3652,1692748580846512317,,0.07257177885594857
1692748580850806474,3653,1692748580850806474,,0.016301208515124174
1692748580855543375,3654,1692748580855543375,,0.06691664751600236
1692748580860893249,3655,1692748580860893249,,0.11392019511466242
1692748580865656614,3656,1692748580865656614,,0.4247564743390061
1692748580870437383,3657,1692748580870437383,,0.11062441750655702
1692748580875636577,3658,1692748580875636577,,0.05208932343934246
1692748580880501747,3659,1692748580880501747,,0.12426316437293737
1692748580885689973,3660,1692748580885689973,,0.056738137620258935
1692748580890509605,3661,1692748580890509605,,0.10704430509094562
1692748580895798921,3662,1692748580895798921,,0.04992233914627462
1692748580900604724,3663,1692748580900604724,,0.026874173895049546
1692748580905781745,3664,1692748580905781745,,0.012501253853537581
1692748580910611152,3665,1692748580910611152,,0.004973633782439017
1692748580915812253,3666,1692748580915812253,,0.051150497012739674
1692748580921527624,3667,1692748580921527624,,0.02854908241106105
1692748580926316261,3668,1692748580926316261,,0.1342536803427134
1692748580933426380,3669,1692748580933426380,,0.496365316880284
1692748580936111927,3670,1692748580936111927,,0.10703204653588651
1692748580940836191,3671,1692748580940836191,,0.0396759421608621
1692748580945842266,3672,1692748580945842266,,0.4042682460722852
1692748580950953006,3673,1692748580950953006,,0.08484618575166752
1692748580955786705,3674,1692748580955786705,,0.017541346374607112
1692748580960986375,3675,1692748580960986375,,0.18562858084821332
1692748580965760231,3676,1692748580965760231,,0.11688918985454544
1692748580970575809,3677,1692748580970575809,,0.023744410043307317
1692748580975807189,3678,1692748580975807189,,0.005647538623445425
1692748580980638504,3679,1692748580980638504,,0.07898415958436975
1692748580985796451,3680,1692748580985796451,,0.02496577174302614
1692748580990610122,3681,1692748580990610122,,0.005291101099045993
1692748580995860576,3682,1692748580995860576,,0.027477609280019785
1692748581000662088,3683,1692748581000662088,,0.00901372442619821
1692748581005743503,3684,1692748581005743503,,0.012733848379665185
1692748581010619401,3685,1692748581010619401,,0.013653732396349184
1692748581015885353,3686,1692748581015885353,,0.006683621820542079
1692748581020620107,3687,1692748581020620107,,0.139490005325599
1692748581025823116,3688,1692748581025823116,,0.5495018820848748
1692748581030685424,3689,1692748581030685424,,0.12954983782641627
1692748581035905122,3690,1692748581035905122,,0.041819774765284534
1692748581040736198,3691,1692748581040736198,,0.013593056727977806
1692748581045912981,3692,1692748581045912981,,0.012508982840167986
1692748581050732612,3693,1692748581050732612,,0.18390210305938998
1692748581055954933,3694,1692748581055954933,,0.0517382580803747
1692748581060797929,3695,1692748581060797929,,0.010360313175595106
1692748581066094636,3696,1692748581066094636,,0.018684748768667832
1692748581070878028,3697,1692748581070878028,,0.08711673887429998
1692748581075628042,3698,1692748581075628042,,0.04981876140454655
1692748581081027030,3699,1692748581081027030,,0.01333590975748616
1692748581085746288,3700,1692748581085746288,,0.2695732596765412
1692748581090594291,3701,1692748581090594291,,0.10235510901426187
1692748581095822572,3702,1692748581095822572,,0.22308577984941505
1692748581100657939,3703,1692748581100657939,,0.14639132560337154
1692748581105835437,3704,1692748581105835437,,0.26307150420241543
1692748581110579729,3705,1692748581110579729,,0.10494366357498142
1692748581115932941,3706,1692748581115932941,,0.04638194642405838
1692748581120703220,3707,1692748581120703220,,0.31377779283302776
1692748581126382827,3708,1692748581126382827,,0.0660728007805997
1692748581130774736,3709,1692748581130774736,,0.03578881689912837
1692748581135567665,3710,1692748581135567665,,0.03479717194159588
1692748581140842676,3711,1692748581140842676,,0.008013791835494541
1692748581145646095,3712,1692748581145646095,,0.05549644975460072
1692748581150967359,3713,1692748581150967359,,0.07725189571796542
1692748581155703544,3714,1692748581155703544,,0.38909578779519755
1692748581160585880,3715,1692748581160585880,,0.09718330840899533
1692748581165801525,3716,1692748581165801525,,0.03721273230902378
1692748581170588493,3717,1692748581170588493,,0.0297546328725182
1692748581175820589,3718,1692748581175820589,,0.014613648171976988
1692748581180659532,3719,1692748581180659532,,0.08616462603246748
1692748581185783147,3720,1692748581185783147,,1.5044107885912528
1692748581190658807,3721,1692748581190658807,,0.39544106525775063
1692748581195959568,3722,1692748581195959568,,0.2055711221405262
1692748581200720548,3723,1692748581200720548,,2.266896766816229
1692748581205946922,3724,1692748581205946922,,0.7025109826771936
1692748581210762977,3725,1692748581210762977,,0.2250762895375732
1692748581216063261,3726,1692748581216063261,,0.11682055596554478
1692748581220869064,3727,1692748581220869064,,0.22317327679821178
1692748581225688219,3728,1692748581225688219,,0.044636728717487674
1692748581230759620,3729,1692748581230759620,,0.14849984274981498
1692748581235529184,3730,1692748581235529184,,0.05403664937173551
1692748581240875005,3731,1692748581240875005,,0.11724211298643271
1692748581245609760,3732,1692748581245609760,,0.07497396033530676
1692748581250972747,3733,1692748581250972747,,0.03504994574108937
1692748581255793094,3734,1692748581255793094,,0.05174760417720284
1692748581260586738,3735,1692748581260586738,,0.3077265216090567
1692748581265829563,3736,1692748581265829563,,0.0969124357702488
1692748581270639896,3737,1692748581270639896,,0.20234849028482393
1692748581275869131,3738,1692748581275869131,,0.09795227746488672
1692748581280662059,3739,1692748581280662059,,0.42149340666035556
1692748581285803318,3740,1692748581285803318,,0.0843065994260694
1692748581290655374,3741,1692748581290655374,,0.021480548581843895
1692748581295986890,3742,1692748581295986890,,0.24148045798948797
1692748581300742387,3743,1692748581300742387,,0.2873408381764387
1692748581305917263,3744,1692748581305917263,,0.08025626565013626
1692748581310771942,3745,1692748581310771942,,0.03365786715983882
1692748581316027879,3746,1692748581316027879,,0.00998520062731564
1692748581320806026,3747,1692748581320806026,,0.3387173958409395
1692748581325598478,3748,1692748581325598478,,0.16419807213959076
1692748581332056522,3749,1692748581332056522,,0.06394186718096953
1692748581336172580,3750,1692748581336172580,,0.02873878011302959
1692748581340667724,3751,1692748581340667724,,0.24048222654198223
1692748581345812797,3752,1692748581345812797,,0.19831210413996975
1692748581350618362,3753,1692748581350618362,,0.040360466024418624
1692748581355923652,3754,1692748581355923652,,0.0499608088950886
1692748581361266374,3755,1692748581361266374,,0.1252509989300101
1692748581367722272,3756,1692748581367722272,,0.188564723235572
1692748581371125459,3757,1692748581371125459,,0.2132605364430517
1692748581375964879,3758,1692748581375964879,,0.1046267428183995
1692748581380791664,3759,1692748581380791664,,0.1313179573803168
1692748581385574340,3760,1692748581385574340,,0.04784210959042896
1692748581390833616,3761,1692748581390833616,,0.02101140339114182
1692748581395672798,3762,1692748581395672798,,0.15852146020658506
1692748581401029109,3763,1692748581401029109,,0.3985449316249683
1692748581405800819,3764,1692748581405800819,,0.10351746379827886
1692748581410630464,3765,1692748581410630464,,0.10831275841944119
1692748581415895462,3766,1692748581415895462,,0.0742431852671505
1692748581420696020,3767,1692748581420696020,,0.10138669190339868
1692748581425863742,3768,1692748581425863742,,0.15063388877353545
1692748581433736801,3769,1692748581433736801,,0.05895185908070033
1692748581435815334,3770,1692748581435815334,,0.12142600803784698
1692748581440693616,3771,1692748581440693616,,0.1724472471519411
1692748581445882081,3772,1692748581445882081,,0.29133768307659896
1692748581450703144,3773,1692748581450703144,,0.13949279543857937
1692748581455955505,3774,1692748581455955505,,0.031381091037372
1692748581460792303,3775,1692748581460792303,,0.05390030370641112
1692748581466061353,3776,1692748581466061353,,0.025447844301782617
1692748581470820903,3777,1692748581470820903,,0.00877947561694852
1692748581475622177,3778,1692748581475622177,,0.0022747137990798763
1692748581480959892,3779,1692748581480959892,,0.007725516971081036
1692748581485661506,3780,1692748581485661506,,0.05623875056332468
1692748581490563631,3781,1692748581490563631,,0.13540860114703845
1692748581495813608,3782,1692748581495813608,,0.08955168008893932
1692748581500625371,3783,1692748581500625371,,0.03711166965404761
1692748581505819320,3784,1692748581505819320,,0.10429101817031722
1692748581510632991,3785,1692748581510632991,,0.02212796200210815
1692748581515891551,3786,1692748581515891551,,0.11969613276739656
1692748581520636320,3787,1692748581520636320,,0.0250418421691782
1692748581525862932,3788,1692748581525862932,,0.16606543699254736
1692748581530719995,3789,1692748581530719995,,0.07022726454921221
1692748581535995244,3790,1692748581535995244,,0.04095226529374934
1692748581540821552,3791,1692748581540821552,,0.025707244919279906
1692748581545586109,3792,1692748581545586109,,0.11565731873514491
1692748581550931692,3793,1692748581550931692,,0.11577446566641611
1692748581555694580,3794,1692748581555694580,,0.0872516520267056
1692748581560562849,3795,1692748581560562849,,0.02264411433126854
1692748581565801382,3796,1692748581565801382,,0.007589667816337577
1692748581572423934,3797,1692748581572423934,,0.0015382816365099297
1692748581575695037,3798,1692748581575695037,,0.07153044634983564
1692748581580645084,3799,1692748581580645084,,0.030966258905600962
1692748581585802555,3800,1692748581585802555,,0.007279257827764571
1692748581590621709,3801,1692748581590621709,,0.009005483524036934
1692748581599189043,3802,1692748581599189043,,0.23660693825784387
1692748581601020574,3803,1692748581601020574,,0.053883776732088086
1692748581605788946,3804,1692748581605788946,,0.048284599112136485
1692748581610629081,3805,1692748581610629081,,0.3045235937323538
1692748581615845680,3806,1692748581615845680,,0.4803392715262641
1692748581620619058,3807,1692748581620619058,,0.10819144515709218
1692748581629238605,3808,1692748581629238605,,0.022058514409143606
1692748581630978822,3809,1692748581630978822,,0.005069000250274159
1692748581638442277,3810,1692748581638442277,,0.10838925346238545
1692748581640928030,3811,1692748581640928030,,0.02295058193000972
1692748581645678758,3812,1692748581645678758,,0.01625970391045859
1692748581650973558,3813,1692748581650973558,,0.005203229096076586
1692748581659288406,3814,1692748581659288406,,0.04652055261397008
1692748581660729169,3815,1692748581660729169,,0.024118972783693023
1692748581665847539,3816,1692748581665847539,,0.187011315935717
1692748581670620203,3817,1692748581670620203,,0.17218733743828835
1692748581675910949,3818,1692748581675910949,,0.17729228676788827
1692748581680706262,3819,1692748581680706262,,0.35155357536802856
1692748581685846805,3820,1692748581685846805,,0.1909335535510226
1692748581690644502,3821,1692748581690644502,,0.058850534576113986
1692748581695794582,3822,1692748581695794582,,0.011942938847779591
1692748581700609207,3823,1692748581700609207,,0.07206642841753355
1692748581706048965,3824,1692748581706048965,,0.05217974583413709
1692748581710551500,3825,1692748581710551500,,0.12486429876593605
1692748581715809822,3826,1692748581715809822,,0.13818889657090436
1692748581720629930,3827,1692748581720629930,,0.045087663525808536
1692748581725809812,3828,1692748581725809812,,0.014249343727778228
1692748581730663776,3829,1692748581730663776,,0.02366791106763255
1692748581735937118,3830,1692748581735937118,,0.8331907785254314
1692748581740794658,3831,1692748581740794658,,0.16852720772884686
1692748581745816946,3832,1692748581745816946,,0.22043357182938034
1692748581750635623,3833,1692748581750635623,,0.05725366363464571
1692748581755843639,3834,1692748581755843639,,0.23571568812368665
1692748581760651588,3835,1692748581760651588,,0.04730455240474828
1692748581765838146,3836,1692748581765838146,,0.0662585545839389
1692748581770660400,3837,1692748581770660400,,0.40787424178965903
1692748581777376413,3838,1692748581777376413,,0.08354668092499058
1692748581781026363,3839,1692748581781026363,,0.019112962566896225
1692748581785775661,3840,1692748581785775661,,0.06172117462530484
1692748581790585517,3841,1692748581790585517,,0.23511251431877045
1692748581795828819,3842,1692748581795828819,,0.05972877851131082
1692748581803308963,3843,1692748581803308963,,1.0292963375232431
1692748581805989265,3844,1692748581805989265,,0.22651895563364352
1692748581810754537,3845,1692748581810754537,,0.045799313414616565
1692748581816061496,3846,1692748581816061496,,0.00920036845242594
1692748581820848941,3847,1692748581820848941,,0.2078324787458099
1692748581825648069,3848,1692748581825648069,,0.18840949488874537
1692748581831011056,3849,1692748581831011056,,0.06149377980097509
1692748581835905551,3850,1692748581835905551,,0.021723714557757973
1692748581843275070,3851,1692748581843275070,,0.3534404916434494
1692748581845747470,3852,1692748581845747470,,0.0981939209494775
1692748581850631952,3853,1692748581850631952,,0.12085882370275297
1692748581856764316,3854,1692748581856764316,,0.053911504014124687
1692748581860594272,3855,1692748581860594272,,0.013049912708098205
1692748581865846872,3856,1692748581865846872,,0.006228319140868967
1692748581870661973,3857,1692748581870661973,,0.12259127621402863
1692748581875857830,3858,1692748581875857830,,0.048787453512634846
1692748581886315345,3859,1692748581886315345,,0.31781137391215664
1692748581886952400,3860,1692748581886952400,,0.06593991663735936
1692748581890585899,3861,1692748581890585899,,0.01318831073669785
1692748581895873785,3862,1692748581895873785,,0.009934639447310899
1692748581900690793,3863,1692748581900690793,,0.019099415937572743
1692748581905840396,3864,1692748581905840396,,0.1926060787566489
1692748581910773992,3865,1692748581910773992,,0.16487145446078935
1692748581915930271,3866,1692748581915930271,,0.07831736944947397
1692748581920743703,3867,1692748581920743703,,0.061065128823448465
1692748581926108360,3868,1692748581926108360,,0.0973665543257819
1692748581930644989,3869,1692748581930644989,,0.22546786935614552
1692748581935845613,3870,1692748581935845613,,0.12964728638972173
1692748581940637588,3871,1692748581940637588,,0.028468505868665554
1692748581945834159,3872,1692748581945834159,,0.033953142548526036
1692748581950664997,3873,1692748581950664997,,0.013339705928373996
1692748581955886363,3874,1692748581955886363,,0.005851800156559809
1692748581963341474,3875,1692748581963341474,,0.014150395781490178
1692748581965972900,3876,1692748581965972900,,0.6784728035989682
1692748581970700740,3877,1692748581970700740,,0.24201343780711929
1692748581976046562,3878,1692748581976046562,,0.04843723928046445
1692748581982042789,3879,1692748581982042789,,0.06932499963979241
1692748581985877275,3880,1692748581985877275,,0.07026723622325393
1692748581990707397,3881,1692748581990707397,,0.25283612217306484
1692748581996045112,3882,1692748581996045112,,0.2999702080802961
1692748582000848293,3883,1692748582000848293,,0.2269398794236972
1692748582006107091,3884,1692748582006107091,,0.05331291642220779
1692748582010941267,3885,1692748582010941267,,0.017494547220620688
1692748582015692949,3886,1692748582015692949,,0.27072623692787
1692748582020514726,3887,1692748582020514726,,0.21878531735838222
1692748582025754451,3888,1692748582025754451,,0.17077651668689725
1692748582030620813,3889,1692748582030620813,,0.03681403230366674
1692748582035807371,3890,1692748582035807371,,0.008277470302505918
1692748582040634632,3891,1692748582040634632,,0.02048859162948898
1692748582048056602,3892,1692748582048056602,,0.22822501774087414
1692748582050804138,3893,1692748582050804138,,0.15613279509620157
1692748582055570125,3894,1692748582055570125,,0.40586556179427136
1692748582060865163,3895,1692748582060865163,,0.0847438553059554
1692748582065707921,3896,1692748582065707921,,0.056655962748874585
1692748582070475339,3897,1692748582070475339,,0.06711916622268715
1692748582075685739,3898,1692748582075685739,,0.08131484989711894
1692748582080564975,3899,1692748582080564975,,0.13426218286526928
1692748582085813283,3900,1692748582085813283,,0.02879934434540217
1692748582090620994,3901,1692748582090620994,,0.4343421688336736
1692748582095871925,3902,1692748582095871925,,0.5348181163128507
1692748582100661754,3903,1692748582100661754,,0.10746342241212098
1692748582105850219,3904,1692748582105850219,,0.14438127757872998
1692748582110624074,3905,1692748582110624074,,0.06312787953260934
1692748582115885972,3906,1692748582115885972,,0.04050457739699048
1692748582120800971,3907,1692748582120800971,,0.01181070590045424
1692748582126149654,3908,1692748582126149654,,0.06504367769542062
1692748582130940198,3909,1692748582130940198,,0.329923081810091
1692748582135820627,3910,1692748582135820627,,0.20497091247284954
1692748582140583276,3911,1692748582140583276,,0.15608251287974298
1692748582145797491,3912,1692748582145797491,,0.07626599426907568
1692748582150630474,3913,1692748582150630474,,0.2185724607126258
1692748582155869960,3914,1692748582155869960,,0.18897326761663483
1692748582160703420,3915,1692748582160703420,,0.07039210432417062
1692748582165904998,3916,1692748582165904998,,0.11630409336466951
1692748582170711040,3917,1692748582170711040,,0.06367443437016779
1692748582176009178,3918,1692748582176009178,,0.08319823154813355
1692748582180816411,3919,1692748582180816411,,0.07196976628393158
1692748582186953067,3920,1692748582186953067,,0.014456443728940737
1692748582190884113,3921,1692748582190884113,,0.008294569624973477
1692748582195664167,3922,1692748582195664167,,0.23190195401850738
1692748582200591325,3923,1692748582200591325,,0.18377320991690482
1692748582205773115,3924,1692748582205773115,,0.039702313523984054
1692748582210602283,3925,1692748582210602283,,0.04221742440508526
1692748582215834140,3926,1692748582215834140,,0.0712650756825749
1692748582220629215,3927,1692748582220629215,,0.039507267173418154
1692748582225786209,3928,1692748582225786209,,0.015387173216383231
1692748582230635404,3929,1692748582230635404,,0.032276167902870904
