%time,field.header.seq,field.header.stamp,field.header.frame_id,field.data.data
1692743686244993686,155,1692743686244993686,,0.3994711614441968
1692743686249793767,156,1692743686249793767,,-0.06095659215361682
1692743686254668474,157,1692743686254668474,,0.6765050397284575
1692743686259562730,158,1692743686259562730,,0.42900943691418814
1692743686264856815,159,1692743686264856815,,0.11514384570740166
1692743686269700288,160,1692743686269700288,,0.14990631706708868
1692743686274571418,161,1692743686274571418,,-0.1471119260742162
1692743686279949903,162,1692743686279949903,,-0.1692227254173817
1692743686284765958,163,1692743686284765958,,0.1882905230996803
1692743686289602756,164,1692743686289602756,,0.35345227449487293
1692743686294970989,165,1692743686294970989,,0.120212327169118
1692743686300003528,166,1692743686300003528,,0.29089864418585165
1692743686304620504,167,1692743686304620504,,0.018320559777236234
1692743686310656785,168,1692743686310656785,,-0.03673196359482045
1692743686314774990,169,1692743686314774990,,0.02805355086468353
1692743686320012331,170,1692743686320012331,,0.18550892249853668
1692743686324883222,171,1692743686324883222,,-0.285271695510394
1692743686329647064,172,1692743686329647064,,-0.3541596461580454
1692743686335058212,173,1692743686335058212,,0.33728468341069906
1692743686339876174,174,1692743686339876174,,-0.2072664171048757
1692743686344688177,175,1692743686344688177,,-0.19307673598539754
1692743686349942922,176,1692743686349942922,,0.004277766256901572
1692743686354778051,177,1692743686354778051,,-0.3373340783484373
1692743686359647274,178,1692743686359647274,,-0.20726745268338398
1692743686364975929,179,1692743686364975929,,0.5633921559924842
1692743686369696140,180,1692743686369696140,,0.17092295475553776
1692743686375402450,181,1692743686375402450,,-1.0388064681498417
1692743686379842042,182,1692743686379842042,,0.3877290093164989
1692743686384668111,183,1692743686384668111,,-0.2571207779498552
1692743686389836549,184,1692743686389836549,,-0.3858048786747066
1692743686394818305,185,1692743686394818305,,0.2399193358229006
1692743686399649381,186,1692743686399649381,,-0.29679581766143315
1692743686404539585,187,1692743686404539585,,0.4528122893233544
1692743686409880638,188,1692743686409880638,,0.5607657365160117
1692743686414724588,189,1692743686414724588,,-0.03010922014218753
1692743686419667959,190,1692743686419667959,,-0.009224957671624345
1692743686424993991,191,1692743686424993991,,0.4388202935740084
1692743686429769992,192,1692743686429769992,,0.7543879805663432
1692743686434602737,193,1692743686434602737,,0.07587316863719984
1692743686439938306,194,1692743686439938306,,-0.43530052968504673
1692743686444798707,195,1692743686444798707,,0.7635712775719012
1692743686449625253,196,1692743686449625253,,-0.002415964911085311
1692743686454963445,197,1692743686454963445,,0.19811009367057508
1692743686459837198,198,1692743686459837198,,0.2151554515119809
1692743686464638710,199,1692743686464638710,,-0.09120881842681605
1692743686469942808,200,1692743686469942808,,0.47252057210855103
1692743686474756002,201,1692743686474756002,,-0.3072398725422172
1692743686479573726,202,1692743686479573726,,-0.37727485657418036
1692743686484929323,203,1692743686484929323,,0.08363789974465874
1692743686489744901,204,1692743686489744901,,0.02269357506858327
1692743686494539737,205,1692743686494539737,,0.26815357877837087
1692743686499845266,206,1692743686499845266,,-0.37917001756642055
1692743686504690170,207,1692743686504690170,,0.14345969416140925
1692743686509539604,208,1692743686509539604,,0.014633218526815206
1692743686514879941,209,1692743686514879941,,0.5021846381536701
1692743686519678831,210,1692743686519678831,,1.0724635492118333
1692743686524617195,211,1692743686524617195,,0.23955545960238833
1692743686531355381,212,1692743686531355381,,0.2883929524863573
1692743686534819841,213,1692743686534819841,,-0.08990840519415055
1692743686539717674,214,1692743686539717674,,0.43467434510960246
1692743686545002698,215,1692743686545002698,,-0.18962256057410176
1692743686549759387,216,1692743686549759387,,0.6966649220998873
1692743686554649591,217,1692743686554649591,,0.28674312003597535
1692743686560052156,218,1692743686560052156,,-0.03260878211131679
1692743686564806938,219,1692743686564806938,,-0.24847660009563288
1692743686569920301,220,1692743686569920301,,0.3016045768858895
1692743686574920177,221,1692743686574920177,,0.05373506718366894
1692743686579682826,222,1692743686579682826,,0.13653357010997258
1692743686584544181,223,1692743686584544181,,-0.3044003368456538
1692743686589904308,224,1692743686589904308,,0.5354553780617826
1692743686594732761,225,1692743686594732761,,-0.02282463045905292
1692743686599589109,226,1692743686599589109,,0.15344612852898898
1692743686604938507,227,1692743686604938507,,-1.0955886658122473
1692743686609837055,228,1692743686609837055,,0.7722331104490658
1692743686614727497,229,1692743686614727497,,0.361304542084957
1692743686619596242,230,1692743686619596242,,-0.27972558497689004
1692743686624906539,231,1692743686624906539,,0.3010406001129491
1692743686629717588,232,1692743686629717588,,-0.064710114820282
1692743686634573459,233,1692743686634573459,,0.3638607843768886
1692743686639935731,234,1692743686639935731,,-0.23126813211744324
1692743686644785165,235,1692743686644785165,,0.48349372931450496
1692743686649605751,236,1692743686649605751,,0.2153891735015403
1692743686654993772,237,1692743686654993772,,0.5373505484119532
1692743686659809589,238,1692743686659809589,,0.3412627053234898
1692743686664625406,239,1692743686664625406,,0.14675475148979178
1692743686669476032,240,1692743686669476032,,-0.009178975981456894
1692743686674782991,241,1692743686674782991,,-0.03391224563432971
1692743686679610729,242,1692743686679610729,,-0.28168286398534015
1692743686684931755,243,1692743686684931755,,0.3815914623676919
1692743686689768791,244,1692743686689768791,,-0.21010157834579157
1692743686694639921,245,1692743686694639921,,-0.019423323759117928
1692743686699875116,246,1692743686699875116,,0.17916554995514922
1692743686704698324,247,1692743686704698324,,-0.22553883099037098
1692743686709560871,248,1692743686709560871,,0.03227220435152578
1692743686714892864,249,1692743686714892864,,-0.46164107054222825
1692743686719684600,250,1692743686719684600,,-0.1139208869482804
1692743686724575281,251,1692743686724575281,,0.5879320269086525
1692743686729889869,252,1692743686729889869,,0.21443494442485456
1692743686736397743,253,1692743686736397743,,0.9118372011437712
1692743686740016698,254,1692743686740016698,,0.07562574241657494
1692743686744932174,255,1692743686744932174,,-0.10348795549668743
1692743686749716758,256,1692743686749716758,,0.5917327427233472
1692743686754605054,257,1692743686754605054,,0.05196057116395103
1692743686759972333,258,1692743686759972333,,-0.3842942975724668
1692743686764755010,259,1692743686764755010,,0.2709976428593901
1692743686769596099,260,1692743686769596099,,-0.7414519363284855
1692743686777739286,261,1692743686777739286,,0.5174006100185773
1692743686780357837,262,1692743686780357837,,0.17359958253440055
1692743686784936189,263,1692743686784936189,,0.5364736940149921
1692743686789757490,264,1692743686789757490,,0.2888706001879937
1692743686794615983,265,1692743686794615983,,-0.10250137144700577
1692743686800127744,266,1692743686800127744,,0.25979772705042414
1692743686804665088,267,1692743686804665088,,0.43443246715292805
1692743686809553384,268,1692743686809553384,,0.703996791651412
1692743686814858436,269,1692743686814858436,,-0.2764041120150864
1692743686819712162,270,1692743686819712162,,-0.39139096458678413
1692743686824646711,271,1692743686824646711,,-0.10425650732898539
1692743686829895019,272,1692743686829895019,,0.30798680732166783
1692743686834759712,273,1692743686834759712,,0.02124714067074418
1692743686839590072,274,1692743686839590072,,0.022406659882673097
1692743686844961643,275,1692743686844961643,,0.27518475488207006
1692743686849762916,276,1692743686849762916,,0.5543185087212219
1692743686854619026,277,1692743686854619026,,0.3626868493296147
1692743686860247135,278,1692743686860247135,,0.38579090124487436
1692743686864748001,279,1692743686864748001,,0.30016106362774675
1692743686869600296,280,1692743686869600296,,0.26835170597244584
1692743686874934434,281,1692743686874934434,,0.6252048260385221
1692743686879783153,282,1692743686879783153,,0.24454911688670933
1692743686884622812,283,1692743686884622812,,0.4320654939789117
1692743686889595985,284,1692743686889595985,,-0.4623960228153301
1692743686894941091,285,1692743686894941091,,0.13022575105087775
1692743686899786949,286,1692743686899786949,,-0.6413375243617603
1692743686904712200,287,1692743686904712200,,0.1103429218736105
1692743686909490585,288,1692743686909490585,,-0.45742376371637494
1692743686914785861,289,1692743686914785861,,-0.0304125083516551
1692743686919672012,290,1692743686919672012,,-0.17794540318834784
1692743686924823760,291,1692743686924823760,,0.21940547098952745
1692743686929710388,292,1692743686929710388,,0.04085501931500879
1692743686934578180,293,1692743686934578180,,0.7813998317761977
1692743686941339969,294,1692743686941339969,,-0.21902297298563322
1692743686945120334,295,1692743686945120334,,0.05354279723753397
1692743686949867963,296,1692743686949867963,,-0.2419684160853146
1692743686954713344,297,1692743686954713344,,-0.08713205445383565
1692743686959559679,298,1692743686959559679,,0.5028320307800032
1692743686965297937,299,1692743686965297937,,-0.808611961515572
1692743686970157623,300,1692743686970157623,,0.26475736266114147
1692743686975466489,301,1692743686975466489,,-0.24619198887065075
1692743686979521274,302,1692743686979521274,,-0.19889479567612423
1692743686985259771,303,1692743686985259771,,0.15885614723553498
1692743686989748001,304,1692743686989748001,,-0.14914389247873938
1692743686994613170,305,1692743686994613170,,0.08264850019798597
1692743686999506711,306,1692743686999506711,,0.15656134422883383
1692743687005052328,307,1692743687005052328,,-0.3099164921521167
1692743687009658575,308,1692743687009658575,,0.5066490677756006
1692743687014550447,309,1692743687014550447,,-0.039837475450111626
1692743687019861459,310,1692743687019861459,,-0.28941787201666447
1692743687024932384,311,1692743687024932384,,0.24352764149560446
1692743687029679536,312,1692743687029679536,,0.1540979924868946
1692743687035037994,313,1692743687035037994,,0.006492425648291444
1692743687039829730,314,1692743687039829730,,-0.05782164945670587
1692743687044710159,315,1692743687044710159,,0.27170043294903845
1692743687050003290,316,1692743687050003290,,-0.6022270727515737
1692743687054883956,317,1692743687054883956,,0.17443361840024707
1692743687059713602,318,1692743687059713602,,-0.0013324501907083786
1692743687065011978,319,1692743687065011978,,0.024269476614820817
1692743687069805145,320,1692743687069805145,,0.40813833178140424
1692743687074628114,321,1692743687074628114,,0.277432545163669
1692743687080004692,322,1692743687080004692,,0.08474594411342729
1692743687084741115,323,1692743687084741115,,-0.3754692392247847
1692743687089583635,324,1692743687089583635,,0.15616437492543334
1692743687094851732,325,1692743687094851732,,-0.3173912561089791
1692743687099654197,326,1692743687099654197,,0.3258645716203157
1692743687106893539,327,1692743687106893539,,0.4908596894962569
1692743687109543323,328,1692743687109543323,,0.36417566860697903
1692743687114866971,329,1692743687114866971,,0.37409274692058236
1692743687119679689,330,1692743687119679689,,0.2135755714067935
1692743687124546527,331,1692743687124546527,,0.0544415958812996
1692743687130062818,332,1692743687130062818,,-0.10076566808371368
1692743687134832382,333,1692743687134832382,,0.18522817619638765
1692743687139656782,334,1692743687139656782,,0.34581164696798794
1692743687145713806,335,1692743687145713806,,0.25323341161784363
1692743687149757385,336,1692743687149757385,,0.29842468387475307
1692743687155149936,337,1692743687155149936,,0.4365860423315908
1692743687160038709,338,1692743687160038709,,0.3482083090104062
1692743687164826631,339,1692743687164826631,,1.002941800047509
1692743687169652462,340,1692743687169652462,,0.3105426354481242
1692743687175006866,341,1692743687175006866,,0.268304653757669
1692743687179840564,342,1692743687179840564,,0.2945028264664753
1692743687184634923,343,1692743687184634923,,-0.26132725301327486
1692743687189974546,344,1692743687189974546,,0.20543421496410996
1692743687194815158,345,1692743687194815158,,0.041004562011375256
1692743687199664115,346,1692743687199664115,,0.3819358096051664
1692743687205032110,347,1692743687205032110,,0.020991919292316474
1692743687210019826,348,1692743687210019826,,0.21573067397701085
1692743687221048355,349,1692743687221048355,,0.08771917285125408
1692743687221732616,350,1692743687221732616,,-0.20925441410049928
1692743687224512338,351,1692743687224512338,,0.7004130400073132
1692743687229869127,352,1692743687229869127,,-0.2022084340020518
1692743687235167264,353,1692743687235167264,,0.04525045520737425
1692743687239517688,354,1692743687239517688,,0.047667118746641535
1692743687244812965,355,1692743687244812965,,0.0638670874701317
1692743687249639511,356,1692743687249639511,,0.26828850932321924
1692743687254558801,357,1692743687254558801,,0.00016644890648809252
1692743687259887933,358,1692743687259887933,,-0.1193039177765769
1692743687264710664,359,1692743687264710664,,-0.07593376992574985
1692743687269533634,360,1692743687269533634,,0.6547176368475442
1692743687274915695,361,1692743687274915695,,0.3961633535706026
1692743687279706001,362,1692743687279706001,,-0.16297460524960083
1692743687284608840,363,1692743687284608840,,0.10558866981497861
1692743687289860248,364,1692743687289860248,,0.23266236465775947
1692743687300352334,365,1692743687300352334,,-0.4261583970821068
1692743687300731420,366,1692743687300731420,,0.58590441185338
1692743687304660797,367,1692743687304660797,,0.4983440542508939
1692743687311383724,368,1692743687311383724,,-0.48742306485731923
1692743687314613103,369,1692743687314613103,,0.5401661537766733
1692743687319498538,370,1692743687319498538,,-0.22123838325849832
1692743687324806213,371,1692743687324806213,,0.08208618300426185
1692743687329824209,372,1692743687329824209,,-0.24043575442995113
1692743687334796190,373,1692743687334796190,,-0.3960691942216581
1692743687339992523,374,1692743687339992523,,0.2626495240335238
1692743687345172643,375,1692743687345172643,,-0.4193124544339941
1692743687350450515,376,1692743687350450515,,0.37455540727631575
1692743687354836225,377,1692743687354836225,,0.5108093611948386
1692743687359662055,378,1692743687359662055,,0.5174435270205198
1692743687364562034,379,1692743687364562034,,-0.15309188876854662
1692743687369677543,380,1692743687369677543,,0.27489516874235687
1692743687374555826,381,1692743687374555826,,-0.14496698688045484
1692743687379914999,382,1692743687379914999,,-0.0858147639800837
1692743687384700298,383,1692743687384700298,,0.4000327599304976
1692743687389550924,384,1692743687389550924,,0.0659749488457475
1692743687394937276,385,1692743687394937276,,0.2215521232421267
1692743687399796962,386,1692743687399796962,,0.016609760544244345
1692743687404636859,387,1692743687404636859,,0.014139104338826591
1692743687409547567,388,1692743687409547567,,0.26153850908828424
1692743687414812088,389,1692743687414812088,,-0.12163412762282988
1692743687419673204,390,1692743687419673204,,0.054592722916123826
1692743687424969911,391,1692743687424969911,,0.19118786861046022
1692743687429803371,392,1692743687429803371,,0.1941365212859818
1692743687434626579,393,1692743687434626579,,0.012318325296145183
1692743687439497947,394,1692743687439497947,,0.32448711164747124
1692743687444871664,395,1692743687444871664,,0.43224387899708727
1692743687449660301,396,1692743687449660301,,0.13257397940924331
1692743687454540729,397,1692743687454540729,,-0.15572876195477914
1692743687459900856,398,1692743687459900856,,-0.05139244821045974
1692743687464708566,399,1692743687464708566,,0.6821295162361549
1692743687469523668,400,1692743687469523668,,-0.17231287411306973
1692743687474925994,401,1692743687474925994,,-0.0017854164024040386
1692743687479692697,402,1692743687479692697,,0.18861786014406778
1692743687484559059,403,1692743687484559059,,0.10577934892499474
1692743687489463090,404,1692743687489463090,,-0.3078366741936973
1692743687494793653,405,1692743687494793653,,0.24747323630018858
1692743687500884294,406,1692743687500884294,,-1.0180958180164241
1692743687504916191,407,1692743687504916191,,0.24777213435405798
1692743687509743213,408,1692743687509743213,,0.24914178502748374
1692743687516141653,409,1692743687516141653,,-0.5171757728578328
1692743687519840478,410,1692743687519840478,,0.18352228864608922
1692743687524782657,411,1692743687524782657,,-0.36755703180743193
1692743687529628276,412,1692743687529628276,,-0.03428888687582443
1692743687534807443,413,1692743687534807443,,0.2698146475434555
1692743687539646625,414,1692743687539646625,,-0.4884508120411004
1692743687544827461,415,1692743687544827461,,-0.1506262457494163
1692743687549647808,416,1692743687549647808,,0.3350685237682782
1692743687555339813,417,1692743687555339813,,0.8137210705761637
1692743687559704780,418,1692743687559704780,,0.23965094243932938
1692743687564823150,419,1692743687564823150,,0.43700427475828363
1692743687569655179,420,1692743687569655179,,-0.19252105994540614
1692743687574758291,421,1692743687574758291,,0.2645007403464392
1692743687579777956,422,1692743687579777956,,0.3779104104154598
1692743687584855318,423,1692743687584855318,,0.24845863245437805
1692743687589649200,424,1692743687589649200,,-0.2086173658320094
1692743687594732761,425,1692743687594732761,,0.992495868405781
1692743687599643468,426,1692743687599643468,,0.45752095441894625
1692743687604856014,427,1692743687604856014,,0.22992798090620425
1692743687609708070,428,1692743687609708070,,-0.28467107251004276
1692743687614923238,429,1692743687614923238,,0.3551758369351523
1692743687619787216,430,1692743687619787216,,-0.1158140269895247
1692743687624934673,431,1692743687624934673,,-0.4948480690345498
1692743687629767894,432,1692743687629767894,,0.13196477602561973
1692743687634492397,433,1692743687634492397,,-0.14780404528656188
1692743687639826059,434,1692743687639826059,,-0.06732954570447092
1692743687644642114,435,1692743687644642114,,-0.13028175117321972
1692743687649887561,436,1692743687649887561,,-0.07902857224478588
1692743687654655694,437,1692743687654655694,,-0.3202276669729729
1692743687659551143,438,1692743687659551143,,0.054429957484270375
1692743687664684057,439,1692743687664684057,,0.2715636485208197
1692743687669612884,440,1692743687669612884,,0.4471375054575599
1692743687674797296,441,1692743687674797296,,0.233962165405611
1692743687679632425,442,1692743687679632425,,-0.14797386715784455
1692743687684715986,443,1692743687684715986,,-0.021387465099244274
1692743687689578056,444,1692743687689578056,,0.32286201795484715
1692743687694716691,445,1692743687694716691,,0.1715798212492654
1692743687699600458,446,1692743687699600458,,0.3231800607882631
1692743687705830574,447,1692743687705830574,,0.32110670709925326
1692743687709572076,448,1692743687709572076,,0.24520504497222095
1692743687714704036,449,1692743687714704036,,-0.3618275303199523
1692743687720953702,450,1692743687720953702,,-0.02013845343988674
1692743687724542379,451,1692743687724542379,,-0.3835585034909643
1692743687730025053,452,1692743687730025053,,-0.2263702710821267
1692743687734770774,453,1692743687734770774,,0.385398264857046
1692743687739993810,454,1692743687739993810,,-0.12494383546551369
1692743687744738817,455,1692743687744738817,,0.08597079792827955
1692743687749974489,456,1692743687749974489,,-0.6158618127060311
1692743687754745483,457,1692743687754745483,,-0.05052105404320972
1692743687760163545,458,1692743687760163545,,0.04840668298243678
1692743687764801502,459,1692743687764801502,,0.41347734472086906
1692743687769617319,460,1692743687769617319,,0.3226337762846132
1692743687774813652,461,1692743687774813652,,0.3320661782745793
1692743687779616117,462,1692743687779616117,,-0.032280303975229074
1692743687784782409,463,1692743687784782409,,-0.029028256646456363
1692743687789659976,464,1692743687789659976,,0.39047635748627396
1692743687794788837,465,1692743687794788837,,0.2005795663629577
1692743687799624204,466,1692743687799624204,,-0.5356213399204535
1692743687804800987,467,1692743687804800987,,0.10241096501791791
1692743687809613943,468,1692743687809613943,,-0.14604675041560977
1692743687814847707,469,1692743687814847707,,0.08001604793072925
1692743687819724321,470,1692743687819724321,,-0.19596527676230746
1692743687824841737,471,1692743687824841737,,0.4076338550183065
1692743687829809427,472,1692743687829809427,,0.13267001497415887
1692743687834935188,473,1692743687834935188,,0.5015493288320618
1692743687839836359,474,1692743687839836359,,0.578291214987174
1692743687844831705,475,1692743687844831705,,-0.15615962795189287
1692743687849707365,476,1692743687849707365,,0.4476027204919468
1692743687854792594,477,1692743687854792594,,0.472135751366614
1692743687859590291,478,1692743687859590291,,0.25649841727169154
1692743687864706754,479,1692743687864706754,,0.39429759034553946
1692743687869551181,480,1692743687869551181,,0.28033659588378335
1692743687874721288,481,1692743687874721288,,0.23080752639702684
1692743687879554986,482,1692743687879554986,,0.30440879925648456
1692743687884696483,483,1692743687884696483,,-0.5782283517493196
1692743687889523267,484,1692743687889523267,,0.017686193810102502
1692743687894737005,485,1692743687894737005,,-0.366010893781179
1692743687899533748,486,1692743687899533748,,-0.0837465788385039
1692743687904646635,487,1692743687904646635,,0.02710686673961149
1692743687910534143,488,1692743687910534143,,0.4584527249289154
1692743687914689540,489,1692743687914689540,,0.5541406123010022
1692743687919543266,490,1692743687919543266,,-0.22805499573414867
1692743687925761222,491,1692743687925761222,,0.7343106954030549
1692743687929506301,492,1692743687929506301,,0.4503838562103777
1692743687934675216,493,1692743687934675216,,0.4982421030595461
1692743687939496755,494,1692743687939496755,,1.2672810974447746
1692743687944751501,495,1692743687944751501,,0.26254569272643113
1692743687949525594,496,1692743687949525594,,0.09739564589447358
1692743687954682826,497,1692743687954682826,,0.11424231198515145
1692743687959543466,498,1692743687959543466,,0.27278109337991285
1692743687964839935,499,1692743687964839935,,0.21430992734363485
1692743687969538450,500,1692743687969538450,,-0.45697593184971463
1692743687974692106,501,1692743687974692106,,-0.16931475385101535
1692743687979531526,502,1692743687979531526,,0.39167427370139674
1692743687984669923,503,1692743687984669923,,-0.18894186893604203
1692743687989509582,504,1692743687989509582,,0.3041420960703318
1692743687994677782,505,1692743687994677782,,-1.5780621412811118
1692743687999539613,506,1692743687999539613,,-0.7615891337694949
1692743688004673957,507,1692743688004673957,,-0.4436426486063123
1692743688009537220,508,1692743688009537220,,1.29662164522271
1692743688014676332,509,1692743688014676332,,-0.6724014923665047
1692743688019608259,510,1692743688019608259,,0.8320564237459536
1692743688024717807,511,1692743688024717807,,-0.21668358232822804
1692743688029568910,512,1692743688029568910,,0.33126700740927273
1692743688034709692,513,1692743688034709692,,0.3487811936764409
1692743688039547681,514,1692743688039547681,,8.206475856198381e-05
1692743688044706344,515,1692743688044706344,,-0.17624547267903612
1692743688049534559,516,1692743688049534559,,-0.33713991649835684
1692743688054734230,517,1692743688054734230,,0.10128907026755485
1692743688059555530,518,1692743688059555530,,-0.0014330879385182627
1692743688064691305,519,1692743688064691305,,0.05407805690088541
1692743688069958448,520,1692743688069958448,,0.17998952019897274
1692743688074698925,521,1692743688074698925,,0.11690705855815775
1692743688079544305,522,1692743688079544305,,-0.24718442321681344
1692743688084689378,523,1692743688084689378,,0.1201931294784151
1692743688089564085,524,1692743688089564085,,-0.33066045760170937
1692743688094713687,525,1692743688094713687,,0.24342049746570638
1692743688099573612,526,1692743688099573612,,0.552294560152867
1692743688104694843,527,1692743688104694843,,-0.6943969938012797
1692743688109549760,528,1692743688109549760,,-0.7163919856314065
1692743688115363597,529,1692743688115363597,,-0.0874019704151312
1692743688119556188,530,1692743688119556188,,0.5151455859420624
1692743688124872922,531,1692743688124872922,,-0.4362436583072631
1692743688130747795,532,1692743688130747795,,-0.36350909260428477
1692743688134844779,533,1692743688134844779,,1.0753422404678359
1692743688139653444,534,1692743688139653444,,0.794977618457855
1692743688144794940,535,1692743688144794940,,-0.7767138939416158
1692743688149607181,536,1692743688149607181,,-0.14717854047990464
1692743688154713153,537,1692743688154713153,,0.12031470325111204
1692743688159583806,538,1692743688159583806,,-0.8593959429506102
1692743688164691209,539,1692743688164691209,,0.5832923872519782
1692743688169579744,540,1692743688169579744,,0.511005635988039
1692743688174756050,541,1692743688174756050,,0.75197498170402
1692743688179549217,542,1692743688179549217,,0.23789746761979735
1692743688184682846,543,1692743688184682846,,-0.4643594780588458
1692743688189537763,544,1692743688189537763,,1.219965836132106
1692743688194724321,545,1692743688194724321,,-1.109947360346486
1692743688199645519,546,1692743688199645519,,-0.934875385372056
1692743688204696416,547,1692743688204696416,,0.2985384334099477
1692743688209565877,548,1692743688209565877,,-0.3743634841670209
1692743688214699745,549,1692743688214699745,,-0.3274990110580225
1692743688219666957,550,1692743688219666957,,1.1497062270996201
1692743688224746227,551,1692743688224746227,,0.8773106631779504
1692743688229553699,552,1692743688229553699,,1.243189837794251
1692743688235115289,553,1692743688235115289,,0.5344048839693096
1692743688239809751,554,1692743688239809751,,-0.09377138040705901
1692743688244877099,555,1692743688244877099,,-0.9153866121152703
1692743688249631881,556,1692743688249631881,,0.6588554079893356
1692743688261005163,557,1692743688261005163,,0.31552831470701914
1692743688261736869,558,1692743688261736869,,0.04335091829080007
1692743688265239477,559,1692743688265239477,,0.6216045302285202
1692743688269622564,560,1692743688269622564,,-0.13847362248364714
1692743688274771451,561,1692743688274771451,,0.8555289610713919
1692743688279620170,562,1692743688279620170,,0.22703832595901474
1692743688284739732,563,1692743688284739732,,0.7952499886212836
1692743688289575576,564,1692743688289575576,,0.01726886900855984
1692743688294709682,565,1692743688294709682,,0.5448873420691251
1692743688299559116,566,1692743688299559116,,0.22238561158649706
1692743688304693460,567,1692743688304693460,,0.1299572883089235
1692743688309932708,568,1692743688309932708,,1.0587595351506787
1692743688314672946,569,1692743688314672946,,-1.650037894888642
1692743688320098161,570,1692743688320098161,,1.0294519339521369
1692743688324686527,571,1692743688324686527,,0.37664766242101244
1692743688329542875,572,1692743688329542875,,1.8638627831578267
1692743688342034101,574,1692743688342034101,,-0.17509685716532264
1692743688345407009,575,1692743688345407009,,-0.8217221648418311
1692743688349853515,576,1692743688349853515,,0.08767629533912569
1692743688354968309,577,1692743688354968309,,1.6179587963478212
1692743688359709739,578,1692743688359709739,,0.12395537373356369
1692743688364489078,579,1692743688364489078,,0.7111183148866473
1692743688369751214,580,1692743688369751214,,1.7105870920032125
1692743688374534368,581,1692743688374534368,,-1.3154320627090725
1692743688379897832,582,1692743688379897832,,0.49052537817890407
1692743688384612560,583,1692743688384612560,,0.16348104958281873
1692743688389448404,584,1692743688389448404,,1.9032422170637995
1692743688394826173,585,1692743688394826173,,1.7963484187896377
1692743688399724483,586,1692743688399724483,,-1.4384256449873396
1692743688404706001,587,1692743688404706001,,0.5663683340190175
1692743688409567832,588,1692743688409567832,,0.3316271184923165
1692743688414695501,589,1692743688414695501,,-1.597905075749011
1692743688425586938,590,1692743688425586938,,1.2190486987595204
1692743688426268339,591,1692743688426268339,,0.43678754176790413
1692743688430503129,592,1692743688430503129,,0.2253262592902674
1692743688434587240,593,1692743688434587240,,1.7361886762355985
1692743688439457178,594,1692743688439457178,,0.588969885353948
1692743688445061683,595,1692743688445061683,,1.3930933614955752
1692743688449909448,596,1692743688449909448,,-0.4100468346239303
1692743688454630851,597,1692743688454630851,,1.813535596761584
1692743688459725141,598,1692743688459725141,,1.7170310234018666
1692743688464703083,599,1692743688464703083,,-1.153975586942602
1692743688469570636,600,1692743688469570636,,2.131097757320772
1692743688474714517,601,1692743688474714517,,-0.3915341072753815
1692743688479620933,602,1692743688479620933,,1.4464966789944453
1692743688484710931,603,1692743688484710931,,0.7074526564453159
1692743688489515542,604,1692743688489515542,,0.5623433695746405
1692743688494681596,605,1692743688494681596,,0.6189919345425814
1692743688499545574,606,1692743688499545574,,-2.3349528203913437
1692743688504672527,607,1692743688504672527,,1.7387170409478792
1692743688509561538,608,1692743688509561538,,1.529053933394449
1692743688514678239,609,1692743688514678239,,1.5111317380721738
1692743688519576549,610,1692743688519576549,,-2.4450353950481603
1692743688525044441,611,1692743688525044441,,-1.2557746424573315
1692743688529547214,612,1692743688529547214,,0.45222869984878233
1692743688534692764,613,1692743688534692764,,2.110531115706899
1692743688540206193,614,1692743688540206193,,1.4245323281248448
1692743688544712305,615,1692743688544712305,,1.0395041022988751
1692743688549548625,616,1692743688549548625,,0.5145955499965238
1692743688554681301,617,1692743688554681301,,0.15857290356586162
1692743688559586286,618,1692743688559586286,,-1.593698709310773
1692743688564689397,619,1692743688564689397,,-1.4632724795058172
1692743688569545507,620,1692743688569545507,,-0.8525833490499508
1692743688574702739,621,1692743688574702739,,1.272819718928405
1692743688579537630,622,1692743688579537630,,-0.41614434869557293
1692743688584684610,623,1692743688584684610,,-1.7639039498949458
1692743688589554071,624,1692743688589554071,,-1.5471453492573066
1692743688595165014,625,1692743688595165014,,1.655837326930813
1692743688599537134,626,1692743688599537134,,-0.2759641471691294
1692743688604697704,627,1692743688604697704,,-0.9879274702544416
1692743688609540939,628,1692743688609540939,,0.03503483862342627
1692743688614686965,629,1692743688614686965,,1.2632985907758316
1692743688619623184,630,1692743688619623184,,-2.3203957173588257
1692743688624726295,631,1692743688624726295,,-2.1240271848208656
1692743688629642724,632,1692743688629642724,,-0.3494821826418235
1692743688634694099,633,1692743688634694099,,0.40892274362195913
1692743688639528274,634,1692743688639528274,,-0.3781715571944888
1692743688644697189,635,1692743688644697189,,-0.5913269192698518
1692743688649552822,636,1692743688649552822,,-2.0637248880661807
1692743688654691696,637,1692743688654691696,,0.38087132519071165
1692743688659591436,638,1692743688659591436,,-2.382404999318938
1692743688664713621,639,1692743688664713621,,-1.3003405620609625
1692743688669564485,640,1692743688669564485,,-1.7564594815312624
1692743688674681186,641,1692743688674681186,,-1.8298510266498282
1692743688679532766,642,1692743688679532766,,1.973420609796733
1692743688684666395,643,1692743688684666395,,1.7408132270562744
1692743688689537525,644,1692743688689537525,,2.1781060538314225
1692743688694694757,645,1692743688694694757,,-1.4191436696909916
1692743688699573040,646,1692743688699573040,,-0.19623166565907546
1692743688704678297,647,1692743688704678297,,-1.3482205142435282
1692743688709561586,648,1692743688709561586,,-0.31361191665896904
1692743688714663267,649,1692743688714663267,,-0.6463988747670841
1692743688719524145,650,1692743688719524145,,-1.5741363547750011
1692743688724741220,651,1692743688724741220,,0.33427991236554977
1692743688730450630,652,1692743688730450630,,-2.9613093182283325
1692743688734679698,653,1692743688734679698,,-1.860142651221874
1692743688739546775,654,1692743688739546775,,-3.1390866438174663
1692743688745067358,655,1692743688745067358,,-1.451465988584589
1692743688749536752,656,1692743688749536752,,-2.8888367256640417
1692743688754872083,657,1692743688754872083,,1.4396211124029907
1692743688759779930,658,1692743688759779930,,-2.0206909222189804
1692743688764839649,659,1692743688764839649,,-2.7489563017909338
1692743688769662141,660,1692743688769662141,,0.017272503501555292
1692743688774830579,661,1692743688774830579,,0.9529519527343258
1692743688779659509,662,1692743688779659509,,0.5540525733900576
1692743688784785509,663,1692743688784785509,,-0.13696994390524342
1692743688789649724,664,1692743688789649724,,-0.3044465873909106
1692743688794795274,665,1692743688794795274,,-2.198952122280921
1692743688799656391,666,1692743688799656391,,-2.2275273552588475
1692743688804769277,667,1692743688804769277,,-3.1275322413245257
1692743688809651136,668,1692743688809651136,,0.4062628259749843
1692743688814795494,669,1692743688814795494,,0.3057720649819853
1692743688819625139,670,1692743688819625139,,0.5287169991810536
1692743688824854850,671,1692743688824854850,,-2.1826985268350887
1692743688829664707,672,1692743688829664707,,-0.2495008061213646
1692743688834801912,673,1692743688834801912,,-1.9292618887437278
1692743688839575052,674,1692743688839575052,,-0.7084505713895846
1692743688844882726,675,1692743688844882726,,-0.5516102152064484
1692743688849750280,676,1692743688849750280,,1.9736102579846815
1692743688854776144,677,1692743688854776144,,-2.665371349381674
1692743688859789609,678,1692743688859789609,,-0.43252936670702
1692743688864726543,679,1692743688864726543,,0.1785200951805921
1692743688869559288,680,1692743688869559288,,-2.2892500824341635
1692743688874707221,681,1692743688874707221,,-0.04932606693753794
1692743688879576683,682,1692743688879576683,,-0.42137574373926334
1692743688886489391,683,1692743688886489391,,-0.2537251553142932
1692743688889968872,684,1692743688889968872,,1.6943328344527693
1692743688894704818,685,1692743688894704818,,1.4251594229595925
1692743688899554252,686,1692743688899554252,,-1.00754917539225
1692743688904681205,687,1692743688904681205,,-1.6199623395647582
1692743688909567117,688,1692743688909567117,,2.1965636967067823
1692743688914695501,689,1692743688914695501,,-0.019401391573452997
1692743688919827461,690,1692743688919827461,,1.4383908841797055
1692743688924609899,691,1692743688924609899,,-0.5860399656413939
1692743688929448604,692,1692743688929448604,,1.102930244260671
1692743688934622526,693,1692743688934622526,,0.7541053468923007
1692743688939517021,694,1692743688939517021,,1.239172153457191
1692743688944694757,695,1692743688944694757,,-1.9334931311925025
1692743688949743986,696,1692743688949743986,,0.2323647869290033
1692743688954698085,697,1692743688954698085,,0.31198327783768587
1692743688959601163,698,1692743688959601163,,1.3198560175959981
1692743688964695215,699,1692743688964695215,,-3.3790575762148025
1692743688969535350,700,1692743688969535350,,-1.2397268167206015
1692743688974697113,701,1692743688974697113,,-3.039490730607052
1692743688979566812,702,1692743688979566812,,-1.4890561878403892
1692743688984698534,703,1692743688984698534,,0.8958642446232545
1692743688989548206,704,1692743688989548206,,-0.9957427469979798
1692743688994705915,705,1692743688994705915,,0.7976294174729244
1692743688999563455,706,1692743688999563455,,1.0983828043198098
1692743689004694461,707,1692743689004694461,,0.9315086678446995
1692743689009579658,708,1692743689009579658,,1.205007027256884
1692743689014705181,709,1692743689014705181,,1.5821684675356105
1692743689019590377,710,1692743689019590377,,-0.23602846108145403
1692743689024751186,711,1692743689024751186,,0.927511819996873
1692743689029590845,712,1692743689029590845,,-0.2782110248028635
1692743689034721136,713,1692743689034721136,,-1.2484561166410728
1692743689039554357,714,1692743689039554357,,-1.050728688069432
1692743689044703722,715,1692743689044703722,,1.534104093912248
1692743689049548864,716,1692743689049548864,,-0.5241728078432315
1692743689054689645,717,1692743689054689645,,0.8186844612040582
1692743689059592485,718,1692743689059592485,,-2.8024911606023286
1692743689064697742,719,1692743689064697742,,1.281400438552132
1692743689069537639,720,1692743689069537639,,-0.907391920012496
1692743689074712753,721,1692743689074712753,,1.1895250657482022
1692743689079542636,722,1692743689079542636,,-1.9500272190591783
1692743689084686279,723,1692743689084686279,,-0.9934723598571393
1692743689091352224,724,1692743689091352224,,1.5201811710782511
1692743689094714641,725,1692743689094714641,,-1.8158140352684873
1692743689099620819,726,1692743689099620819,,0.42748927619596255
1692743689104779720,727,1692743689104779720,,1.5888689870515291
1692743689109668016,728,1692743689109668016,,-2.580410610606562
1692743689114797592,729,1692743689114797592,,-1.5113244091283025
1692743689119623184,730,1692743689119623184,,-1.8604471315017919
1692743689124810457,731,1692743689124810457,,-1.2681191577861028
1692743689129662275,732,1692743689129662275,,-1.1121993465161362
1692743689134951114,733,1692743689134951114,,-2.376345658212365
1692743689139559984,734,1692743689139559984,,-3.1572206477149822
1692743689144758939,735,1692743689144758939,,-2.695450647088301
1692743689149581909,736,1692743689149581909,,-0.8646218470259059
1692743689154697895,737,1692743689154697895,,-1.992960531866955
1692743689159641027,738,1692743689159641027,,3.002705413528658
1692743689164708375,739,1692743689164708375,,-1.683538515019662
1692743689169551610,740,1692743689169551610,,-0.5268956861941643
1692743689174711465,741,1692743689174711465,,-2.985191793316722
1692743689179574728,742,1692743689179574728,,0.8954170058227682
1692743689184712886,743,1692743689184712886,,0.5986968623689943
1692743689189908504,744,1692743689189908504,,1.9334250244955147
1692743689195955276,745,1692743689195955276,,1.8054890851780296
1692743689199566125,746,1692743689199566125,,0.251864419982164
1692743689204708576,747,1692743689204708576,,-1.415625531052779
1692743689209557533,748,1692743689209557533,,-1.4128340247052655
1692743689215142250,749,1692743689215142250,,-1.1540870942688102
1692743689219605445,750,1692743689219605445,,-0.8697549352788965
1692743689224828004,751,1692743689224828004,,1.3694202731193865
1692743689229587316,752,1692743689229587316,,0.8092917300929674
1692743689234701395,753,1692743689234701395,,0.8137570798619969
1692743689239579916,754,1692743689239579916,,-1.1423511166887907
1692743689244725704,755,1692743689244725704,,0.20052905127003928
1692743689249560594,756,1692743689249560594,,2.0297340643795643
1692743689254704952,757,1692743689254704952,,-2.2569074151527095
1692743689259667873,758,1692743689259667873,,-2.466859339202638
1692743689264731407,759,1692743689264731407,,1.5902325581993466
1692743689269576311,760,1692743689269576311,,-1.4569687988353675
1692743689274729728,761,1692743689274729728,,-0.7447128069691846
1692743689279573678,762,1692743689279573678,,-1.9220295019858993
1692743689284536123,763,1692743689284536123,,0.6894973048895459
1692743689289508819,764,1692743689289508819,,-0.751194101110098
1692743689296093463,765,1692743689296093463,,-1.5288480235107862
1692743689300061464,766,1692743689300061464,,1.213923951472876
1692743689305170774,767,1692743689305170774,,0.9164016370305221
1692743689309598207,768,1692743689309598207,,0.5658035823591128
1692743689314716339,769,1692743689314716339,,0.29173059228409315
1692743689319575548,770,1692743689319575548,,-1.4426167276654533
1692743689324739217,771,1692743689324739217,,0.9649912798138676
1692743689329594373,772,1692743689329594373,,-0.06742828568561876
1692743689335132122,773,1692743689335132122,,-1.6561180029501759
1692743689339538335,774,1692743689339538335,,-2.4315085639279066
1692743689344827175,775,1692743689344827175,,-2.546450565011815
1692743689349691390,776,1692743689349691390,,1.0690366384479955
1692743689354805946,777,1692743689354805946,,-0.17817330992447467
1692743689359766721,778,1692743689359766721,,-1.5437031237500425
1692743689364740371,779,1692743689364740371,,0.01047511952494773
1692743689369550228,780,1692743689369550228,,0.38974729364912797
1692743689374690294,781,1692743689374690294,,-0.1498662116549223
1692743689379537105,782,1692743689379537105,,0.10074471057888079
1692743689384691238,783,1692743689384691238,,-1.207093576622933
1692743689389548063,784,1692743689389548063,,0.001287421950669554
1692743689394713878,785,1692743689394713878,,1.5011237781996192
1692743689399560213,786,1692743689399560213,,0.2270764980543296
1692743689404698610,787,1692743689404698610,,-1.3790634484729676
1692743689409613132,788,1692743689409613132,,0.7079541247058643
1692743689414689779,789,1692743689414689779,,-1.1015413471634314
1692743689419887542,790,1692743689419887542,,-0.4022139289047262
1692743689424765110,791,1692743689424765110,,0.25571319048688324
1692743689429596662,792,1692743689429596662,,-0.3799110782330679
1692743689434698581,793,1692743689434698581,,2.118230361565616
1692743689439546346,794,1692743689439546346,,1.7136668211967416
1692743689444693088,795,1692743689444693088,,1.2671044238700864
1692743689449475288,796,1692743689449475288,,-0.9273534136768555
1692743689454663991,797,1692743689454663991,,0.3106101172773599
1692743689459570646,798,1692743689459570646,,0.054915475248838774
1692743689464694499,799,1692743689464694499,,0.7809431175344885
1692743689469526767,800,1692743689469526767,,-0.6312542155285019
1692743689474687814,801,1692743689474687814,,-1.8503581414076016
1692743689479555606,802,1692743689479555606,,-2.6235621802046163
1692743689484711408,803,1692743689484711408,,-2.317105603497889
1692743689489827394,804,1692743689489827394,,0.7666816713475448
1692743689494705200,805,1692743689494705200,,-1.5942565095250285
1692743689500864744,806,1692743689500864744,,0.26698740702241874
1692743689504570960,807,1692743689504570960,,0.5302849283865525
1692743689509455442,808,1692743689509455442,,0.3165840210958084
1692743689514639854,809,1692743689514639854,,2.0108659752609324
1692743689519510746,810,1692743689519510746,,-2.0596250976526735
1692743689524710178,811,1692743689524710178,,-0.8226502777412561
1692743689529568433,812,1692743689529568433,,0.3842842987613002
1692743689534686326,813,1692743689534686326,,0.4047740936160942
1692743689539582729,814,1692743689539582729,,0.3651808194274686
1692743689544734716,815,1692743689544734716,,0.20532228248878237
1692743689549602508,816,1692743689549602508,,-0.8889464972279999
1692743689554697751,817,1692743689554697751,,1.527321080782568
1692743689559640407,818,1692743689559640407,,2.680597384200145
1692743689565515518,819,1692743689565515518,,-2.8869778697722612
1692743689569544792,820,1692743689569544792,,-1.0720455958228072
1692743689574694871,821,1692743689574694871,,-0.5473592197469177
1692743689579539775,822,1692743689579539775,,0.7106028973877443
1692743689584676265,823,1692743689584676265,,-2.9546814018288203
1692743689589553356,824,1692743689589553356,,-2.2319439506349967
1692743689594697713,825,1692743689594697713,,0.6424627760478083
1692743689599558115,826,1692743689599558115,,1.0755722037533504
1692743689604677915,827,1692743689604677915,,-2.7262131699398524
1692743689609554290,828,1692743689609554290,,-3.0655568300799185
1692743689614689588,829,1692743689614689588,,-3.4952401906438664
1692743689619725227,830,1692743689619725227,,1.9141456420096068
1692743689624886274,831,1692743689624886274,,0.5265117292216912
1692743689629715204,832,1692743689629715204,,-1.7624410283417355
1692743689634809970,833,1692743689634809970,,-2.173512450896413
1692743689639644145,834,1692743689639644145,,-2.3238390875977384
1692743689644828081,835,1692743689644828081,,-0.2379459349416333
1692743689649663686,836,1692743689649663686,,-0.9084639736670299
1692743689654822826,837,1692743689654822826,,-1.8380399455963432
1692743689659698009,838,1692743689659698009,,-0.8833850510078847
1692743689666743040,839,1692743689666743040,,2.756613162190921
1692743689669852018,840,1692743689669852018,,-1.004424782799397
1692743689674671173,841,1692743689674671173,,-2.143340471358449
1692743689679527759,842,1692743689679527759,,-0.6803810271646862
1692743689684703350,843,1692743689684703350,,2.1653453598750554
1692743689689590454,844,1692743689689590454,,-2.2449788952747594
1692743689694784164,845,1692743689694784164,,0.9341258440054361
1692743689699644327,846,1692743689699644327,,1.8887304754059446
1692743689705655574,847,1692743689705655574,,-1.6327305570685495
1692743689709580898,848,1692743689709580898,,0.7078109586978787
1692743689714667320,849,1692743689714667320,,1.6850924808873877
1692743689719536304,850,1692743689719536304,,-0.8619965949847792
1692743689724700927,851,1692743689724700927,,1.2408654526179532
1692743689729530096,852,1692743689729530096,,1.763488282058404
1692743689734863042,853,1692743689734863042,,1.4418253445432665
1692743689739680528,854,1692743689739680528,,-0.937595126717726
1692743689744817733,855,1692743689744817733,,-0.562750696774386
1692743689749661445,856,1692743689749661445,,0.9432751117427687
1692743689754793167,857,1692743689754793167,,1.09437999340129
1692743689759674787,858,1692743689759674787,,-0.5788897489058975
1692743689764771223,859,1692743689764771223,,-1.8422972255532044
1692743689769643783,860,1692743689769643783,,0.6192229393367228
1692743689774759531,861,1692743689774759531,,0.4594721198007976
1692743689779762744,862,1692743689779762744,,-0.583483540723507
1692743689784827709,863,1692743689784827709,,2.9633133814585557
1692743689789544105,864,1692743689789544105,,0.3397400437163931
1692743689794760942,865,1692743689794760942,,0.7522131562047472
1692743689799871444,866,1692743689799871444,,-1.9221882592641983
1692743689804875373,867,1692743689804875373,,-3.0974660274669996
1692743689809692621,868,1692743689809692621,,-0.8774968551362008
1692743689814815998,869,1692743689814815998,,-0.36988935314919846
1692743689819666862,870,1692743689819666862,,-2.78852939520929
1692743689824836015,871,1692743689824836015,,-1.5572331297053608
1692743689829565286,872,1692743689829565286,,-0.21765023966828156
1692743689834692955,873,1692743689834692955,,1.0646982594179644
1692743689839534997,874,1692743689839534997,,2.597094271021847
1692743689844723463,875,1692743689844723463,,-2.4141979187023455
1692743689849558830,876,1692743689849558830,,0.749091185210764
1692743689854692697,877,1692743689854692697,,1.680195526671442
1692743689859581708,878,1692743689859581708,,1.3018811783937911
1692743689864691734,879,1692743689864691734,,1.0664353475774808
1692743689871795415,880,1692743689871795415,,-1.890276854581519
1692743689874802589,881,1692743689874802589,,1.4699215622609811
1692743689879698276,882,1692743689879698276,,-2.3691361807698548
1692743689884819746,883,1692743689884819746,,-3.5413835952051325
1692743689889649152,884,1692743689889649152,,-1.1736134079635496
1692743689894773244,885,1692743689894773244,,-1.3782672090170238
1692743689899615764,886,1692743689899615764,,0.7128384798846952
1692743689904750585,887,1692743689904750585,,-2.051673579864259
1692743689910669088,888,1692743689910669088,,0.9329985235489993
1692743689914914369,889,1692743689914914369,,-2.0735794433658183
1692743689919764518,890,1692743689919764518,,1.268376952481864
1692743689924951314,891,1692743689924951314,,2.936934701919397
1692743689929655551,892,1692743689929655551,,1.531911160136966
1692743689934798479,893,1692743689934798479,,0.8624896242431008
1692743689939583063,894,1692743689939583063,,-2.4602574981166425
1692743689944731712,895,1692743689944731712,,0.195674263718165
1692743689949562549,896,1692743689949562549,,1.1095043906998008
1692743689954721689,897,1692743689954721689,,-2.054914782597131
1692743689959751605,898,1692743689959751605,,-0.8599762316766038
1692743689964873313,899,1692743689964873313,,-2.8865484884747525
1692743689969633579,900,1692743689969633579,,-1.5206061011579344
1692743689974814891,901,1692743689974814891,,-1.3606710067156818
1692743689979663848,902,1692743689979663848,,1.0254842355128977
1692743689984904527,903,1692743689984904527,,0.16811004360027493
1692743689989683151,904,1692743689989683151,,2.5617571574667695
1692743689994851112,905,1692743689994851112,,0.1342590270368973
1692743689999699831,906,1692743689999699831,,0.6655634874465974
1692743690004832506,907,1692743690004832506,,-1.8529567595807825
1692743690009730815,908,1692743690009730815,,-1.584936046931611
1692743690014830112,909,1692743690014830112,,-1.7627739208981401
1692743690019708395,910,1692743690019708395,,-1.4510744354985894
1692743690024849891,911,1692743690024849891,,-1.7480646775136268
1692743690029706478,912,1692743690029706478,,0.8391330925372973
1692743690034842014,913,1692743690034842014,,1.1817910326475412
1692743690039660215,914,1692743690039660215,,-1.9167880193505087
1692743690044808149,915,1692743690044808149,,-2.6383168780306505
1692743690049640417,916,1692743690049640417,,-3.5985735184942604
1692743690054789066,917,1692743690054789066,,-2.5830437108417392
1692743690059682607,918,1692743690059682607,,3.2065907670361122
1692743690064798355,919,1692743690064798355,,-0.21166437262844262
1692743690069637537,920,1692743690069637537,,0.6441533871383243
1692743690076293468,921,1692743690076293468,,2.415343377875928
1692743690080079555,922,1692743690080079555,,-2.198242342246909
1692743690084781885,923,1692743690084781885,,-3.1069672085470454
1692743690089631080,924,1692743690089631080,,0.679120302447509
1692743690094796895,925,1692743690094796895,,0.511634905666912
1692743690099651098,926,1692743690099651098,,-1.4741057463698435
1692743690104789018,927,1692743690104789018,,-3.4011467588514934
1692743690109629154,928,1692743690109629154,,-3.3852214680105135
1692743690115272045,929,1692743690115272045,,0.457842527990298
1692743690119650602,930,1692743690119650602,,-1.4679752309604153
1692743690124814510,931,1692743690124814510,,2.611050420120959
1692743690129663467,932,1692743690129663467,,-0.9753982429650963
1692743690134791135,933,1692743690134791135,,-0.15643407702737822
1692743690139661550,934,1692743690139661550,,-1.347872380900193
1692743690144811630,935,1692743690144811630,,0.4637369389842485
1692743690149622201,936,1692743690149622201,,2.5914888356165084
1692743690154821157,937,1692743690154821157,,-3.057503772581977
1692743690159685373,938,1692743690159685373,,-3.971070520233461
1692743690164816379,939,1692743690164816379,,-3.203696067369568
1692743690169843196,940,1692743690169843196,,-2.5401034833117837
1692743690174918651,941,1692743690174918651,,-0.7672831659729713
1692743690179683685,942,1692743690179683685,,2.9560323380451967
1692743690185221672,943,1692743690185221672,,-0.22636715793997642
1692743690189677238,944,1692743690189677238,,1.891078313481378
1692743690194735050,945,1692743690194735050,,0.3114837916461992
1692743690199561834,946,1692743690199561834,,1.7204291848505076
1692743690204710721,947,1692743690204710721,,-1.9231642820548793
1692743690209590196,948,1692743690209590196,,0.1823382894761263
1692743690214700698,949,1692743690214700698,,-2.199440983116713
1692743690219551563,950,1692743690219551563,,-1.9999339420976163
1692743690224810600,951,1692743690224810600,,-0.03442703404754699
1692743690229868888,952,1692743690229868888,,-1.732299116437765
1692743690234591960,953,1692743690234591960,,-3.120215540230941
1692743690239479303,954,1692743690239479303,,0.3093741048266816
1692743690244694471,955,1692743690244694471,,-2.8503481736804797
1692743690249533176,956,1692743690249533176,,-3.551363334722018
1692743690254685640,957,1692743690254685640,,-2.2896672973572647
1692743690259590864,958,1692743690259590864,,0.5132973264877787
1692743690265889167,959,1692743690265889167,,-0.10282656322360229
1692743690269480466,960,1692743690269480466,,0.26122805207968014
1692743690275110006,961,1692743690275110006,,-1.976342323293761
1692743690279567003,962,1692743690279567003,,-1.9138119783022232
1692743690284827232,963,1692743690284827232,,-0.8427057824429234
1692743690289696931,964,1692743690289696931,,-1.389278616760377
1692743690294775724,965,1692743690294775724,,1.8292026296733948
1692743690299857139,966,1692743690299857139,,1.1402188963146278
1692743690306106328,967,1692743690306106328,,-1.968185481187728
1692743690310086488,968,1692743690310086488,,1.7161567626636014
1692743690314806461,969,1692743690314806461,,2.471082033550151
1692743690320294141,970,1692743690320294141,,0.42509008700196205
1692743690324786901,971,1692743690324786901,,2.358110320655612
1692743690329571485,972,1692743690329571485,,0.5586115428044742
1692743690334825515,973,1692743690334825515,,0.2044495960190078
1692743690339671850,974,1692743690339671850,,-0.69329253057834
1692743690344817638,975,1692743690344817638,,0.12459475004035969
1692743690349616289,976,1692743690349616289,,0.24674626076224992
1692743690354783773,977,1692743690354783773,,-1.4189355286181384
1692743690359694242,978,1692743690359694242,,1.0613990379046383
1692743690364822387,979,1692743690364822387,,-2.2362076971740046
1692743690369663000,980,1692743690369663000,,-1.0850927958963466
1692743690374754190,981,1692743690374754190,,-0.2760058852995133
1692743690379608392,982,1692743690379608392,,2.1582667470584562
1692743690384708404,983,1692743690384708404,,0.8372782114606752
1692743690389541625,984,1692743690389541625,,-2.610959057748364
1692743690394730806,985,1692743690394730806,,-1.6943909223888567
1692743690399550914,986,1692743690399550914,,1.757260112969493
1692743690404671192,987,1692743690404671192,,0.3502534729321827
1692743690409558296,988,1692743690409558296,,-3.2662633406578756
1692743690414670228,989,1692743690414670228,,1.5102688008412724
1692743690419545173,990,1692743690419545173,,-0.4950895506602757
1692743690425009250,991,1692743690425009250,,-2.8733997641463733
1692743690429713487,992,1692743690429713487,,-0.08332894031998617
1692743690434830665,993,1692743690434830665,,-0.5432968855335245
1692743690439673185,994,1692743690439673185,,0.14394083101087496
1692743690444816350,995,1692743690444816350,,0.00370874953046485
1692743690449656248,996,1692743690449656248,,-0.10437464796596263
1692743690458650112,997,1692743690458650112,,-1.5547768000711986
1692743690459803342,998,1692743690459803342,,-0.050631367326256616
1692743690464757442,999,1692743690464757442,,1.321888689719592
1692743690470803737,1000,1692743690470803737,,0.9766689353084956
1692743690474668264,1001,1692743690474668264,,-1.6176923395194143
1692743690479954004,1002,1692743690479954004,,-1.5710171874878953
1692743690485790967,1003,1692743690485790967,,-1.9598031593470422
1692743690489849328,1004,1692743690489849328,,-1.9674285336368906
1692743690494615077,1005,1692743690494615077,,2.1792590118689015
1692743690499961614,1006,1692743690499961614,,-0.3808010558722055
1692743690504683732,1007,1692743690504683732,,2.249126981686704
1692743690509561300,1008,1692743690509561300,,-0.6373815854590887
1692743690514727115,1009,1692743690514727115,,-2.419577352944732
1692743690520711660,1010,1692743690520711660,,3.077208619823071
1692743690524907350,1011,1692743690524907350,,2.6120912099635323
1692743690529904842,1012,1692743690529904842,,0.8987497824145452
1692743690534657478,1013,1692743690534657478,,-0.8777353783498896
1692743690539549350,1014,1692743690539549350,,-1.6370166802548516
1692743690544732093,1015,1692743690544732093,,0.9042786898398356
1692743690549699783,1016,1692743690549699783,,-0.05274515519095413
1692743690554998159,1017,1692743690554998159,,-0.6586222415485414
1692743690559687852,1018,1692743690559687852,,-2.380363951238324
1692743690564792156,1019,1692743690564792156,,-1.9481971321020373
1692743690569666862,1020,1692743690569666862,,-0.8003049294282167
1692743690574795961,1021,1692743690574795961,,0.950113104067003
1692743690579666376,1022,1692743690579666376,,-2.756876019285347
1692743690584775209,1023,1692743690584775209,,-0.6755410520496365
1692743690589627504,1024,1692743690589627504,,-0.24547228619091133
1692743690594791650,1025,1692743690594791650,,-3.8356540587869095
1692743690599824905,1026,1692743690599824905,,-3.8527070532874355
1692743690604782819,1027,1692743690604782819,,-3.463831162850128
1692743690609664201,1028,1692743690609664201,,-1.090777250286914
1692743690615967035,1029,1692743690615967035,,0.29213670386198487
1692743690619557857,1030,1692743690619557857,,-3.0635724504621913
1692743690624850749,1031,1692743690624850749,,1.382446789987796
1692743690630028724,1032,1692743690630028724,,-3.1469743577702105
1692743690634685039,1033,1692743690634685039,,-0.2418017029629631
1692743690639539241,1034,1692743690639539241,,-0.038626708765892026
1692743690644695758,1035,1692743690644695758,,1.4292700789736719
1692743690649503946,1036,1692743690649503946,,-1.8187497938430304
1692743690654676914,1037,1692743690654676914,,-0.8954522342644529
1692743690659579992,1038,1692743690659579992,,-2.6294191549681085
1692743690664692401,1039,1692743690664692401,,-1.4031291042308855
1692743690669547080,1040,1692743690669547080,,-2.232359669573493
1692743690675599336,1041,1692743690675599336,,0.7599480701487868
1692743690679539442,1042,1692743690679539442,,-2.5228506275886624
1692743690684693336,1043,1692743690684693336,,-0.9742999963684698
1692743690690524816,1044,1692743690690524816,,1.4596348246311406
1692743690694704294,1045,1692743690694704294,,0.1453910321138956
1692743690699590682,1046,1692743690699590682,,1.6446570651151893
1692743690704753875,1047,1692743690704753875,,-1.7805977343576416
1692743690709622383,1048,1692743690709622383,,1.3504644629414884
1692743690714773654,1049,1692743690714773654,,1.8110537108382339
1692743690720013380,1050,1692743690720013380,,1.0309288177519784
1692743690724762439,1051,1692743690724762439,,-0.27707000713200447
1692743690730064153,1052,1692743690730064153,,-0.7771200057496195
1692743690734778165,1053,1692743690734778165,,0.10484498692215727
1692743690739709138,1054,1692743690739709138,,0.7613539398254963
1692743690744759798,1055,1692743690744759798,,-1.349119437085876
1692743690749579668,1056,1692743690749579668,,-2.4576609123305455
1692743690754721641,1057,1692743690754721641,,-2.083548934172691
1692743690759607791,1058,1692743690759607791,,-0.34005814292230596
1692743690764812707,1059,1692743690764812707,,-2.1508159823723383
1692743690769604921,1060,1692743690769604921,,0.7443619193414044
1692743690774747848,1061,1692743690774747848,,-0.34061313531424897
1692743690779619932,1062,1692743690779619932,,2.048376634948964
1692743690784748554,1063,1692743690784748554,,-0.27253355101464916
1692743690789749860,1064,1692743690789749860,,-2.8101989056295453
1692743690794888734,1065,1692743690794888734,,-2.855446117807369
1692743690799687385,1066,1692743690799687385,,-1.4833376343873184
1692743690804754734,1067,1692743690804754734,,-0.1459533092670151
1692743690809621095,1068,1692743690809621095,,0.4615581909769588
1692743690814784288,1069,1692743690814784288,,-1.8991351347618566
1692743690819626092,1070,1692743690819626092,,0.5360989296610024
1692743690824813365,1071,1692743690824813365,,0.428141431733029
1692743690829631805,1072,1692743690829631805,,2.1860795397023445
1692743690834778547,1073,1692743690834778547,,-0.3080445413408004
1692743690839610338,1074,1692743690839610338,,1.3001910916198351
1692743690844768285,1075,1692743690844768285,,-2.3098949524415118
1692743690849598646,1076,1692743690849598646,,1.6778686762579644
1692743690854752063,1077,1692743690854752063,,-2.401906918648326
1692743690859633922,1078,1692743690859633922,,1.5003854408239476
1692743690864746809,1079,1692743690864746809,,2.314589601739663
1692743690869590520,1080,1692743690869590520,,-1.3129898782530027
1692743690874880313,1081,1692743690874880313,,0.06485981243668615
1692743690880478382,1082,1692743690880478382,,0.06474058263176907
1692743690884767293,1083,1692743690884767293,,1.965302943756022
1692743690889640331,1084,1692743690889640331,,-2.103043431596847
1692743690895972251,1085,1692743690895972251,,0.7603336025560568
1692743690899563312,1086,1692743690899563312,,-0.22099300250251908
1692743690904729604,1087,1692743690904729604,,-2.132633367595428
1692743690909618616,1088,1692743690909618616,,1.7598824727359847
1692743690914760351,1089,1692743690914760351,,-1.370571146304449
1692743690919609308,1090,1692743690919609308,,-0.10059551111624909
1692743690924724340,1091,1692743690924724340,,-0.902749331504114
1692743690929625749,1092,1692743690929625749,,0.9498858611616052
1692743690935313224,1093,1692743690935313224,,-0.07877459277078458
1692743690939751386,1094,1692743690939751386,,-0.01133303749252157
1692743690945132970,1095,1692743690945132970,,-0.8874058767804591
1692743690949667215,1096,1692743690949667215,,1.7006717150909045
1692743690955108642,1097,1692743690955108642,,-1.226603292664592
1692743690959651470,1098,1692743690959651470,,0.5384629310969409
1692743690965263128,1099,1692743690965263128,,1.9599948049741833
1692743690969560384,1100,1692743690969560384,,0.10251193007365078
1692743690975383758,1101,1692743690975383758,,-1.689404502062955
1692743690980188608,1102,1692743690980188608,,-0.378122303968051
1692743690984547138,1103,1692743690984547138,,-0.5196984304355192
1692743690989431619,1104,1692743690989431619,,1.0953486271448885
1692743690994654893,1105,1692743690994654893,,1.6446651276998638
1692743690999804496,1106,1692743690999804496,,0.2854439045399788
1692743691004560708,1107,1692743691004560708,,-1.3576915063873738
1692743691009443759,1108,1692743691009443759,,-0.7079247190294913
1692743691014639854,1109,1692743691014639854,,-0.004064796941301907
1692743691019832849,1110,1692743691019832849,,-0.29345015188259715
1692743691024650573,1111,1692743691024650573,,0.23766751730530622
1692743691030085086,1112,1692743691030085086,,-1.296081053890708
1692743691034764051,1113,1692743691034764051,,1.0577508018883641
1692743691039624452,1114,1692743691039624452,,-2.3233825579677685
1692743691045275688,1115,1692743691045275688,,-1.5129974606471737
1692743691049597978,1116,1692743691049597978,,-1.5177036368689651
1692743691054844379,1117,1692743691054844379,,-0.41207708916980934
1692743691059703350,1118,1692743691059703350,,0.5337170942890914
1692743691064749717,1119,1692743691064749717,,2.0417738167850192
1692743691069591045,1120,1692743691069591045,,-0.5911821098659349
1692743691074738264,1121,1692743691074738264,,2.1983800550057646
1692743691079644441,1122,1692743691079644441,,-1.103277115350858
1692743691085181951,1123,1692743691085181951,,-0.6024012534682948
1692743691089595317,1124,1692743691089595317,,-1.1051460424690065
1692743691094790458,1125,1692743691094790458,,-1.510444520453289
1692743691100161790,1126,1692743691100161790,,-0.26671901677915955
1692743691104734182,1127,1692743691104734182,,1.546741854328027
1692743691109565258,1128,1692743691109565258,,0.5978214155608663
1692743691114711523,1129,1692743691114711523,,-1.1042689866914879
1692743691119566679,1130,1692743691119566679,,-0.319938170217668
1692743691124765157,1131,1692743691124765157,,0.45495945669840854
1692743691129574537,1132,1692743691129574537,,-0.9522780725115654
1692743691134714126,1133,1692743691134714126,,-2.42788552229233
1692743691139567375,1134,1692743691139567375,,1.5983131755187534
1692743691144731760,1135,1692743691144731760,,-1.1546895911713824
1692743691149545192,1136,1692743691149545192,,0.8423997291386618
1692743691154679298,1137,1692743691154679298,,-1.1780063812064032
1692743691159599781,1138,1692743691159599781,,2.4574252872394577
1692743691164718151,1139,1692743691164718151,,-2.395883826887526
1692743691169555902,1140,1692743691169555902,,-2.063797584355613
1692743691174725770,1141,1692743691174725770,,0.9275634115435665
1692743691179543972,1142,1692743691179543972,,1.418858382876663
1692743691184678316,1143,1692743691184678316,,-2.9714459435367138
1692743691189531803,1144,1692743691189531803,,-0.12224866213701358
1692743691194683313,1145,1692743691194683313,,-1.0375983027089424
1692743691199548721,1146,1692743691199548721,,-0.5134280568182916
1692743691204704523,1147,1692743691204704523,,-1.0988297342499829
1692743691209562778,1148,1692743691209562778,,-2.401603354398677
1692743691214686632,1149,1692743691214686632,,-2.352256162393431
1692743691219551801,1150,1692743691219551801,,2.5103466450788163
1692743691224750041,1151,1692743691224750041,,1.2240590907580247
1692743691229560375,1152,1692743691229560375,,-1.465114568188445
1692743691234665155,1153,1692743691234665155,,2.116421637996458
1692743691239535570,1154,1692743691239535570,,-1.7994236399230892
1692743691244710445,1155,1692743691244710445,,1.6524164017987406
1692743691249553680,1156,1692743691249553680,,2.258927956552064
1692743691257141828,1157,1692743691257141828,,-1.663488318807259
1692743691259846448,1158,1692743691259846448,,1.0837006704873486
1692743691264957427,1159,1692743691264957427,,-0.5167162149089721
1692743691269755125,1160,1692743691269755125,,0.6139749217351378
1692743691275082826,1161,1692743691275082826,,-2.385661058422971
1692743691279803037,1162,1692743691279803037,,-0.832022797494365
1692743691284982681,1163,1692743691284982681,,-3.045824845723898
1692743691289979457,1164,1692743691289979457,,2.5969921898787636
1692743691294617891,1165,1692743691294617891,,-0.4347318052194753
1692743691299981355,1166,1692743691299981355,,1.879390964698695
1692743691305231809,1167,1692743691305231809,,-2.1773028355990567
1692743691309674263,1168,1692743691309674263,,0.6712230949952067
1692743691314814805,1169,1692743691314814805,,1.0883368798099955
1692743691319540739,1170,1692743691319540739,,-2.3224069729049286
1692743691324790954,1171,1692743691324790954,,-2.7426085307452928
1692743691330056428,1172,1692743691330056428,,1.443881316272269
1692743691335012674,1173,1692743691335012674,,1.9917377280755328
1692743691339888572,1174,1692743691339888572,,2.2819686814630185
1692743691344564199,1175,1692743691344564199,,-2.5893732895164376
1692743691349944591,1176,1692743691349944591,,1.1331583095661513
1692743691354576110,1177,1692743691354576110,,2.5754927212138288
1692743691359974145,1178,1692743691359974145,,-0.4265759706935315
1692743691364631652,1179,1692743691364631652,,-0.2738366048095191
1692743691369892120,1180,1692743691369892120,,-2.2546376118451126
1692743691374658107,1181,1692743691374658107,,1.0581375221113296
1692743691379966259,1182,1692743691379966259,,-1.3988395628218355
1692743691384662628,1183,1692743691384662628,,-3.5413294547608016
1692743691389520883,1184,1692743691389520883,,1.3228027448393895
1692743691394681453,1185,1692743691394681453,,2.1401879287726393
1692743691399508237,1186,1692743691399508237,,1.724569006265697
1692743691404691934,1187,1692743691404691934,,-1.5340243665834659
1692743691409532070,1188,1692743691409532070,,0.8126369460310778
1692743691414689540,1189,1692743691414689540,,-1.490558490108048
1692743691419552087,1190,1692743691419552087,,-2.8910809589886717
1692743691425243139,1191,1692743691425243139,,-2.877583168224474
1692743691429918050,1192,1692743691429918050,,-2.530661882547056
1692743691434655427,1193,1692743691434655427,,-0.847808385694826
1692743691439976930,1194,1692743691439976930,,-2.2995040031786202
1692743691446537494,1195,1692743691446537494,,0.4876730019500988
1692743691450611829,1196,1692743691450611829,,0.32900587873278564
1692743691454733371,1197,1692743691454733371,,-2.8937847881930447
1692743691459630012,1198,1692743691459630012,,-2.4493645436545752
1692743691464773893,1199,1692743691464773893,,-2.617427445098758
1692743691469639062,1200,1692743691469639062,,-3.0679526522417384
1692743691474799633,1201,1692743691474799633,,-1.5886847689162549
1692743691480054378,1202,1692743691480054378,,-2.0615113810870622
1692743691485064029,1203,1692743691485064029,,-2.829851247837579
1692743691489623785,1204,1692743691489623785,,-2.360891776177072
1692743691494897842,1205,1692743691494897842,,-2.0560787144660275
1692743691499679803,1206,1692743691499679803,,-2.642368578321231
1692743691504825592,1207,1692743691504825592,,2.0555396502846817
1692743691509840011,1208,1692743691509840011,,-0.26557638738097467
1692743691514830112,1209,1692743691514830112,,-0.601248491818045
1692743691519688844,1210,1692743691519688844,,2.7807201052820725
1692743691525046825,1211,1692743691525046825,,1.7196597934616413
1692743691529627323,1212,1692743691529627323,,0.6679360135421986
1692743691534773826,1213,1692743691534773826,,1.9478368510531565
1692743691539630889,1214,1692743691539630889,,0.43994638360709093
1692743691544795989,1215,1692743691544795989,,2.5380945651839424
1692743691549603223,1216,1692743691549603223,,0.6288876455623571
1692743691554745197,1217,1692743691554745197,,2.410070734505486
1692743691559648275,1218,1692743691559648275,,-2.8338935116606505
1692743691564739942,1219,1692743691564739942,,-0.9175670603542461
1692743691569605350,1220,1692743691569605350,,-2.258188542731815
1692743691574770927,1221,1692743691574770927,,-1.570640179112699
1692743691579627275,1222,1692743691579627275,,-1.4336661101879162
1692743691584775686,1223,1692743691584775686,,-0.6677917766681052
1692743691589626312,1224,1692743691589626312,,-3.341510084913682
1692743691594757080,1225,1692743691594757080,,0.8888682391246672
1692743691599652051,1226,1692743691599652051,,-2.750244054333606
1692743691604783296,1227,1692743691604783296,,0.1682868000316038
1692743691609655857,1228,1692743691609655857,,-3.31496367962076
1692743691614770889,1229,1692743691614770889,,-2.5359840164756298
1692743691619561672,1230,1692743691619561672,,1.3726227953354337
1692743691624837636,1231,1692743691624837636,,1.9172336586588399
1692743691629579067,1232,1692743691629579067,,-0.7989760779407158
1692743691634702920,1233,1692743691634702920,,-0.45070557136915124
1692743691639539957,1234,1692743691639539957,,-1.0187197248981263
1692743691644713640,1235,1692743691644713640,,-1.9405991379833898
1692743691651155948,1236,1692743691651155948,,-2.6744938160789586
1692743691654584646,1237,1692743691654584646,,-0.7161777211981422
1692743691659871578,1238,1692743691659871578,,-3.0814810468128746
1692743691664551973,1239,1692743691664551973,,-1.0763746886200263
1692743691670191287,1240,1692743691670191287,,1.3075367261668793
1692743691674528598,1241,1692743691674528598,,-1.5498844165276462
1692743691679874658,1242,1692743691679874658,,2.4903359353291066
1692743691684582233,1243,1692743691684582233,,-2.225914788879838
1692743691689684152,1244,1692743691689684152,,1.4329075530258377
1692743691694677352,1245,1692743691694677352,,-1.5356749808580714
1692743691699598550,1246,1692743691699598550,,2.6819046030162514
1692743691704724311,1247,1692743691704724311,,2.6205238471952104
1692743691709547996,1248,1692743691709547996,,-0.35392713855408786
1692743691715354204,1249,1692743691715354204,,2.350021841169606
1692743691719545602,1250,1692743691719545602,,0.8991306937604113
1692743691724730253,1251,1692743691724730253,,-2.523845032070121
1692743691729466676,1252,1692743691729466676,,-0.3010979000148071
1692743691734664678,1253,1692743691734664678,,1.9262129483975228
1692743691739505052,1254,1692743691739505052,,2.169192519778025
1692743691744737625,1255,1692743691744737625,,-2.8175703462820567
1692743691749533653,1256,1692743691749533653,,0.07530163827074432
1692743691754677772,1257,1692743691754677772,,-1.0905263532742513
1692743691759572267,1258,1692743691759572267,,1.8073750840928602
1692743691764664173,1259,1692743691764664173,,0.37460902025857745
1692743691769495248,1260,1692743691769495248,,1.8724834719343892
1692743691774667501,1261,1692743691774667501,,-1.3845605896910649
1692743691779661893,1262,1692743691779661893,,2.2597914746799734
1692743691784696578,1263,1692743691784696578,,-0.5744109917639042
1692743691789548873,1264,1692743691789548873,,-2.1228940722337604
1692743691794768333,1265,1692743691794768333,,-1.9472992031861645
1692743691799629211,1266,1692743691799629211,,-1.206679592175174
1692743691804708957,1267,1692743691804708957,,-1.8352939530555497
1692743691809624433,1268,1692743691809624433,,0.6050863851888097
1692743691814714670,1269,1692743691814714670,,-1.5153738450933485
1692743691819589376,1270,1692743691819589376,,1.566154535560389
1692743691824806213,1271,1692743691824806213,,0.7033027199063939
1692743691830072164,1272,1692743691830072164,,-0.49752982419057545
1692743691834745883,1273,1692743691834745883,,0.43848856928021007
1692743691839589118,1274,1692743691839589118,,1.0647625690662403
1692743691844763278,1275,1692743691844763278,,-1.1022781622119782
1692743691849587678,1276,1692743691849587678,,-1.9833327760124075
1692743691856078386,1277,1692743691856078386,,-0.1856228905247903
1692743691859586000,1278,1692743691859586000,,-2.4089131529900056
1692743691864744663,1279,1692743691864744663,,3.0103082944958226
1692743691869565248,1280,1692743691869565248,,1.5980243655654096
1692743691874722003,1281,1692743691874722003,,-0.74588520829308
1692743691879592180,1282,1692743691879592180,,0.4955840589645284
1692743691884824037,1283,1692743691884824037,,-0.4614239031923537
1692743691890449762,1284,1692743691890449762,,1.0798706630650488
1692743691896077871,1285,1692743691896077871,,-2.3812749410981784
1692743691900156497,1286,1692743691900156497,,1.9042393894448528
1692743691904679536,1287,1692743691904679536,,-0.15729638603759888
1692743691909531354,1288,1692743691909531354,,-2.3082885142785017
1692743691914659500,1289,1692743691914659500,,-2.8059203364684295
1692743691919527530,1290,1692743691919527530,,-1.7326539474228975
1692743691924667358,1291,1692743691924667358,,1.80032533267737
1692743691929479360,1292,1692743691929479360,,1.572040714992177
1692743691934636354,1293,1692743691934636354,,0.1496311189509143
1692743691939489364,1294,1692743691939489364,,-2.541183561351059
1692743691944662809,1295,1692743691944662809,,2.0150443135771967
1692743691949494600,1296,1692743691949494600,,2.489163411398561
1692743691954654932,1297,1692743691954654932,,-0.5260119937052297
1692743691959555625,1298,1692743691959555625,,1.1781700913409479
1692743691964679241,1299,1692743691964679241,,1.1556883547725079
1692743691969667673,1300,1692743691969667673,,1.1138169025713696
1692743691979612827,1301,1692743691979612827,,-1.6238064137140764
1692743691980000495,1302,1692743691980000495,,-0.37475368488314764
1692743691984612941,1303,1692743691984612941,,-1.997707310980947
1692743691989469766,1304,1692743691989469766,,-1.43415458932362
1692743691994815349,1305,1692743691994815349,,0.7754176510575954
1692743691999607563,1306,1692743691999607563,,-2.3313965853749083
1692743692004730701,1307,1692743692004730701,,0.39660920402390154
1692743692009600162,1308,1692743692009600162,,0.4965437002269848
1692743692014723062,1309,1692743692014723062,,-1.7414378069090173
1692743692019601583,1310,1692743692019601583,,1.9164808530916284
1692743692024722099,1311,1692743692024722099,,-0.20774597108221204
1692743692029627323,1312,1692743692029627323,,1.3853913590716642
1692743692034758806,1313,1692743692034758806,,1.698300813386659
1692743692039610624,1314,1692743692039610624,,-2.415625696135436
1692743692044769525,1315,1692743692044769525,,-0.02902499637038236
1692743692049596071,1316,1692743692049596071,,-2.543105128562015
1692743692061689376,1317,1692743692061689376,,-2.3407562327129074
1692743692062676668,1318,1692743692062676668,,0.34166926044166335
1692743692065196990,1319,1692743692065196990,,0.9722186904891856
1692743692069563627,1320,1692743692069563627,,-0.548397472638138
1692743692074779987,1321,1692743692074779987,,-1.1296585720761954
1692743692079632282,1322,1692743692079632282,,-1.644331931833936
1692743692084755182,1323,1692743692084755182,,-3.1492136644497024
1692743692089649915,1324,1692743692089649915,,1.98023336046188
1692743692094784259,1325,1692743692094784259,,1.6617765001315856
1692743692099566698,1326,1692743692099566698,,-3.33913710345426
1692743692104857444,1327,1692743692104857444,,-3.533744376378414
1692743692109639883,1328,1692743692109639883,,0.9049557094694931
1692743692114688158,1329,1692743692114688158,,-2.1111900291492165
1692743692119502305,1330,1692743692119502305,,1.7398514192320853
1692743692125010490,1331,1692743692125010490,,1.9611358940727728
1692743692129465818,1332,1692743692129465818,,-0.13802282578565261
1692743692134630918,1333,1692743692134630918,,0.5481808764726157
1692743692139572143,1334,1692743692139572143,,1.409733602691368
1692743692144673109,1335,1692743692144673109,,-2.0945314950210276
1692743692149498939,1336,1692743692149498939,,0.20321577621089748
1692743692154658079,1337,1692743692154658079,,-0.5865497912872701
1692743692159558057,1338,1692743692159558057,,3.0991345653683924
1692743692164688587,1339,1692743692164688587,,-2.4899256602939412
1692743692169509410,1340,1692743692169509410,,-3.167706121260676
1692743692174855470,1341,1692743692174855470,,-2.2393930945335057
1692743692179598331,1342,1692743692179598331,,-1.2709798709800957
1692743692184781551,1343,1692743692184781551,,-0.8250457448107502
1692743692189608812,1344,1692743692189608812,,-1.7120436529982266
1692743692194771289,1345,1692743692194771289,,-2.2976834151816186
1692743692199628829,1346,1692743692199628829,,-3.6791780566162577
1692743692204799890,1347,1692743692204799890,,-0.8575580311199964
1692743692209651708,1348,1692743692209651708,,1.759198162025779
1692743692214742422,1349,1692743692214742422,,-1.9737731176482218
1692743692219610452,1350,1692743692219610452,,-1.7021318185843448
1692743692226555824,1351,1692743692226555824,,-0.08951218050687704
1692743692230094909,1352,1692743692230094909,,1.6789025917374731
1692743692234787940,1353,1692743692234787940,,-1.5991928843097876
1692743692239624977,1354,1692743692239624977,,-2.2540185122798775
1692743692244778156,1355,1692743692244778156,,-0.8752470451567511
1692743692249601840,1356,1692743692249601840,,-1.6293349299768405
1692743692254748821,1357,1692743692254748821,,0.8909876195100077
1692743692259606122,1358,1692743692259606122,,-3.026118038656854
1692743692265672206,1359,1692743692265672206,,0.8627669215323799
1692743692269617557,1360,1692743692269617557,,-2.6684271021931933
1692743692274781227,1361,1692743692274781227,,-3.5883561503514194
1692743692279594421,1362,1692743692279594421,,2.486553285913229
1692743692284754037,1363,1692743692284754037,,-1.250967989934531
1692743692289557695,1364,1692743692289557695,,1.4953584598233212
1692743692294764041,1365,1692743692294764041,,-3.014978475002929
1692743692299690246,1366,1692743692299690246,,0.546190976107777
1692743692304793357,1367,1692743692304793357,,-3.735387478570832
1692743692310843229,1368,1692743692310843229,,-3.002419892248259
1692743692314789056,1369,1692743692314789056,,-2.6722976026330767
1692743692320443391,1370,1692743692320443391,,-3.4352747173555462
1692743692325234651,1371,1692743692325234651,,-1.3388202510385785
1692743692330221652,1372,1692743692330221652,,2.3540447501971133
1692743692334762811,1373,1692743692334762811,,2.6058160990584636
1692743692340578079,1374,1692743692340578079,,-0.2714832255275743
1692743692344800710,1375,1692743692344800710,,-0.7790694764267823
1692743692349524974,1376,1692743692349524974,,-1.671944445850737
1692743692355700016,1377,1692743692355700016,,-1.541534887778805
1692743692359887361,1378,1692743692359887361,,-2.247993442846534
1692743692364562749,1379,1692743692364562749,,0.29837816749334944
1692743692369768619,1380,1692743692369768619,,-0.4253825738960675
1692743692374541997,1381,1692743692374541997,,1.9881703619341948
1692743692379870891,1382,1692743692379870891,,2.1089784690007036
1692743692384550809,1383,1692743692384550809,,2.549293259284177
1692743692389861106,1384,1692743692389861106,,2.639892054470515
1692743692394609689,1385,1692743692394609689,,1.9753879675919643
1692743692399969816,1386,1692743692399969816,,-3.7347832491199497
1692743692404641389,1387,1692743692404641389,,-0.7348422337899017
1692743692409671783,1388,1692743692409671783,,-1.8476271023019177
1692743692414737939,1389,1692743692414737939,,-0.3358796191232294
1692743692419587850,1390,1692743692419587850,,-0.15872984751859942
1692743692424757242,1391,1692743692424757242,,0.3977634643347896
1692743692431396007,1392,1692743692431396007,,-2.792014354083702
1692743692434549331,1393,1692743692434549331,,2.6199475743459315
1692743692439836263,1394,1692743692439836263,,2.3974749683508554
1692743692444610357,1395,1692743692444610357,,-1.4603545706551873
1692743692449453592,1396,1692743692449453592,,2.2151649620408262
1692743692454617738,1397,1692743692454617738,,-2.877408529262762
1692743692459550619,1398,1692743692459550619,,2.41797860321911
1692743692464673042,1399,1692743692464673042,,1.8705856179655367
1692743692470423221,1400,1692743692470423221,,-1.7028338321384324
1692743692474716901,1401,1692743692474716901,,-2.2813155267659115
1692743692479537725,1402,1692743692479537725,,1.2505434512591735
1692743692484668731,1403,1692743692484668731,,-1.1687859916977938
1692743692489520549,1404,1692743692489520549,,1.4013671159821701
1692743692494669198,1405,1692743692494669198,,-1.3549632302468329
1692743692499537706,1406,1692743692499537706,,0.3369367530896765
1692743692504685640,1407,1692743692504685640,,-1.341230844477391
1692743692509552240,1408,1692743692509552240,,-1.3152379531165534
1692743692514670133,1409,1692743692514670133,,-1.0033073255761504
1692743692519671201,1410,1692743692519671201,,-0.7749106371337948
1692743692525205612,1411,1692743692525205612,,-0.16353975001243537
1692743692529587030,1412,1692743692529587030,,-0.41518798355635234
1692743692534737348,1413,1692743692534737348,,-2.35625091613494
1692743692539613246,1414,1692743692539613246,,2.2995246220946024
1692743692544976472,1415,1692743692544976472,,-1.70589845629171
1692743692549560785,1416,1692743692549560785,,-1.8580316465141542
1692743692554674625,1417,1692743692554674625,,-2.9527644214526387
1692743692559545516,1418,1692743692559545516,,-2.8957310987609453
1692743692564676761,1419,1692743692564676761,,-3.4348631368945064
1692743692569517612,1420,1692743692569517612,,1.7754565662724815
1692743692574672937,1421,1692743692574672937,,1.7786754400480875
1692743692579509735,1422,1692743692579509735,,2.1806758822233556
1692743692584644794,1423,1692743692584644794,,-2.043273093237677
1692743692589502096,1424,1692743692589502096,,-2.7097815073186626
1692743692594665050,1425,1692743692594665050,,-1.8285037714797499
1692743692599520206,1426,1692743692599520206,,-0.8688880017589122
1692743692604661941,1427,1692743692604661941,,-1.6205505212966727
1692743692609528064,1428,1692743692609528064,,-2.535186654460694
1692743692614657640,1429,1692743692614657640,,-0.23946759811776275
1692743692619495630,1430,1692743692619495630,,-2.9282164982901975
1692743692624734163,1431,1692743692624734163,,0.027713997657157208
1692743692629598617,1432,1692743692629598617,,2.336212939614506
1692743692636248826,1433,1692743692636248826,,-0.6169628847631303
1692743692639847517,1434,1692743692639847517,,-0.9507780640489045
1692743692644556999,1435,1692743692644556999,,2.6076638577038658
1692743692649414062,1436,1692743692649414062,,0.4797355061314015
1692743692654630422,1437,1692743692654630422,,0.25286464827146027
1692743692659524202,1438,1692743692659524202,,0.40879487768303147
1692743692665149688,1439,1692743692665149688,,-0.7582666885193614
1692743692669463396,1440,1692743692669463396,,-0.7919630143741934
1692743692675177812,1441,1692743692675177812,,-1.5330938269635976
1692743692680022239,1442,1692743692680022239,,1.0024544492243663
1692743692684971094,1443,1692743692684971094,,-1.5894738610868209
1692743692689505577,1444,1692743692689505577,,1.3975294181568172
1692743692694661855,1445,1692743692694661855,,-1.4415049012758785
1692743692699576139,1446,1692743692699576139,,-2.64215583806431
1692743692704730510,1447,1692743692704730510,,-3.1763906925411454
1692743692709614515,1448,1692743692709614515,,1.7274114552341393
1692743692714742898,1449,1692743692714742898,,2.1599976904535287
1692743692719587802,1450,1692743692719587802,,-2.927495002607147
1692743692724943876,1451,1692743692724943876,,0.17852510511360276
1692743692729676246,1452,1692743692729676246,,-2.4072148469923595
1692743692734733343,1453,1692743692734733343,,-1.3121642454605627
1692743692739750146,1454,1692743692739750146,,-1.8615619814345754
1692743692744832277,1455,1692743692744832277,,-2.165520257901899
1692743692749629020,1456,1692743692749629020,,0.9057623714151255
1692743692754765987,1457,1692743692754765987,,2.4366440645399976
1692743692759644985,1458,1692743692759644985,,-1.5996092190032898
1692743692764765501,1459,1692743692764765501,,1.778509498750572
1692743692769564390,1460,1692743692769564390,,2.731832950868438
1692743692774760484,1461,1692743692774760484,,0.48977676686313387
1692743692779610633,1462,1692743692779610633,,-2.1604471154142324
1692743692784743309,1463,1692743692784743309,,-1.2481658093700405
1692743692789583921,1464,1692743692789583921,,-3.5981837702797668
1692743692794755220,1465,1692743692794755220,,-1.0846402651232268
1692743692799635887,1466,1692743692799635887,,-1.204625478964095
1692743692804925918,1467,1692743692804925918,,2.217161803206185
1692743692809781312,1468,1692743692809781312,,-1.1303803416254343
1692743692814919471,1469,1692743692814919471,,-1.8966749759361434
1692743692819775342,1470,1692743692819775342,,2.198808004568071
1692743692824790239,1471,1692743692824790239,,-3.717311850133273
1692743692829656600,1472,1692743692829656600,,1.3768403298470462
1692743692834787368,1473,1692743692834787368,,2.2929261764944133
1692743692841142177,1474,1692743692841142177,,2.530351709489305
1692743692844632148,1475,1692743692844632148,,0.8121244683031605
1692743692849480867,1476,1692743692849480867,,0.9744423585755166
1692743692854709863,1477,1692743692854709863,,-1.0795828101989589
1692743692859572410,1478,1692743692859572410,,-2.7921257647013698
1692743692864728212,1479,1692743692864728212,,1.4986098007823676
1692743692869572639,1480,1692743692869572639,,0.33487822934250033
1692743692874746561,1481,1692743692874746561,,-0.00147831302671797
1692743692880064010,1482,1692743692880064010,,0.3928993698211638
1692743692884792327,1483,1692743692884792327,,-1.0918141444275387
1692743692889622449,1484,1692743692889622449,,-2.578580520168495
1692743692894760847,1485,1692743692894760847,,1.1034379895403061
1692743692899591922,1486,1692743692899591922,,1.0759758029754174
1692743692904773712,1487,1692743692904773712,,-0.9564417030975543
1692743692909631729,1488,1692743692909631729,,0.8072685166550677
1692743692914768457,1489,1692743692914768457,,-3.289523401460909
1692743692919589996,1490,1692743692919589996,,-0.8695131576552368
1692743692924772024,1491,1692743692924772024,,-2.1167584830110373
1692743692929579019,1492,1692743692929579019,,2.0006472927859074
1692743692935322284,1493,1692743692935322284,,2.5267858439161452
1692743692939551591,1494,1692743692939551591,,0.7151901372352718
1692743692944728612,1495,1692743692944728612,,1.3836704819263934
1692743692949576854,1496,1692743692949576854,,-3.1716930662563905
1692743692954885959,1497,1692743692954885959,,-0.6496931194771598
1692743692959559917,1498,1692743692959559917,,-1.613986108393759
1692743692964696645,1499,1692743692964696645,,0.49071850336017864
1692743692969506740,1500,1692743692969506740,,1.4991229877365813
1692743692974662542,1501,1692743692974662542,,-3.163633829673299
1692743692979476690,1502,1692743692979476690,,-0.8795409964414267
1692743692984653472,1503,1692743692984653472,,-1.859242877499216
1692743692989505290,1504,1692743692989505290,,-2.405149973530926
1692743692994663953,1505,1692743692994663953,,-3.6486255839137165
1692743692999516725,1506,1692743692999516725,,2.1673983307386298
1692743693004677534,1507,1692743693004677534,,-1.4027891630123386
1692743693009538412,1508,1692743693009538412,,-3.043157026062596
1692743693020057916,1509,1692743693020057916,,0.8348621118163999
1692743693020692110,1510,1692743693020692110,,0.6616894279366825
1692743693024723768,1511,1692743693024723768,,-2.827067284463344
1692743693029530286,1512,1692743693029530286,,-0.7158528206803814
1692743693034689426,1513,1692743693034689426,,0.31661640875840824
1692743693039534330,1514,1692743693039534330,,-2.289121845285208
1692743693046746253,1515,1692743693046746253,,-2.7079523519880797
1692743693049589872,1516,1692743693049589872,,1.97810174657321
1692743693054814100,1517,1692743693054814100,,-2.450040084061817
1692743693059635639,1518,1692743693059635639,,1.903149969651997
1692743693064764022,1519,1692743693064764022,,-1.4676723864298857
1692743693069573402,1520,1692743693069573402,,-2.4518778641452514
1692743693074734449,1521,1692743693074734449,,-3.2783236289843676
1692743693079520702,1522,1692743693079520702,,-3.061221373318408
1692743693084833383,1523,1692743693084833383,,-2.1647416733225544
1692743693089575052,1524,1692743693089575052,,3.070387368557694
1692743693099960565,1526,1692743693099960565,,-2.6598007907025627
1692743693104580640,1527,1692743693104580640,,-0.20847463208382422
1692743693109450101,1528,1692743693109450101,,-2.586204600643225
1692743693114610195,1529,1692743693114610195,,-2.3205914050552643
1692743693119445562,1530,1692743693119445562,,1.7444333022666916
1692743693124790430,1531,1692743693124790430,,-2.3035760347657845
1692743693129529714,1532,1692743693129529714,,0.16602955331673996
1692743693134860515,1533,1692743693134860515,,-1.141055449417018
1692743693139771699,1534,1692743693139771699,,-1.3935231536634567
1692743693144764661,1535,1692743693144764661,,-0.6762220114001529
1692743693149577140,1536,1692743693149577140,,1.0256581919940544
1692743693154706239,1537,1692743693154706239,,0.8731376423472046
1692743693159708261,1538,1692743693159708261,,1.3435683150372872
1692743693164740800,1539,1692743693164740800,,-1.3068103496363648
1692743693169541358,1540,1692743693169541358,,-0.6270586044957378
1692743693174705743,1541,1692743693174705743,,0.5562018159196516
1692743693179513692,1542,1692743693179513692,,0.6467804424051282
1692743693184674263,1543,1692743693184674263,,-0.10612238129721696
1692743693189406633,1544,1692743693189406633,,-1.9794884169381368
1692743693194643259,1545,1692743693194643259,,1.131681398102053
1692743693199514627,1546,1692743693199514627,,-1.5490644369153626
1692743693204662561,1547,1692743693204662561,,-0.06669755803660227
1692743693209494113,1548,1692743693209494113,,0.9578648318574228
1692743693214641332,1549,1692743693214641332,,-3.0138538726972333
1692743693219550132,1550,1692743693219550132,,-2.9800662853851563
1692743693224767684,1551,1692743693224767684,,-3.7642768243044253
1692743693229585409,1552,1692743693229585409,,2.097472217027522
1692743693235623598,1553,1692743693235623598,,-1.6212944295342133
1692743693239573955,1554,1692743693239573955,,-2.9762209995059634
1692743693244720697,1555,1692743693244720697,,-2.8538755631394683
1692743693250466585,1556,1692743693250466585,,2.463263617886745
1692743693254702806,1557,1692743693254702806,,-0.6006427231796883
1692743693259529590,1558,1692743693259529590,,-0.29686963716135484
1692743693264685392,1559,1692743693264685392,,-2.762791876181715
1692743693269535541,1560,1692743693269535541,,-2.2861373722157747
1692743693274848461,1561,1692743693274848461,,-3.260911045136011
1692743693279625654,1562,1692743693279625654,,-1.5039407037832224
1692743693284777164,1563,1692743693284777164,,-1.4540887501191766
1692743693289680957,1564,1692743693289680957,,1.4146052662147186
1692743693294819116,1565,1692743693294819116,,0.7377371668511605
1692743693299674987,1566,1692743693299674987,,-2.3582523131625575
1692743693304929733,1567,1692743693304929733,,-0.2366664034091066
1692743693309813022,1568,1692743693309813022,,0.31049430021973023
1692743693314884662,1569,1692743693314884662,,1.9706897329290483
1692743693319780349,1570,1692743693319780349,,2.1983833708449447
1692743693324835300,1571,1692743693324835300,,2.3826862362051378
1692743693329626321,1572,1692743693329626321,,1.2872146409757104
1692743693334947586,1573,1692743693334947586,,1.317545654842875
1692743693339661598,1574,1692743693339661598,,-2.216125446086135
1692743693344845533,1575,1692743693344845533,,-3.3239758311726835
1692743693349692821,1576,1692743693349692821,,-2.362396776166846
1692743693354837417,1577,1692743693354837417,,1.6562455519192252
1692743693359677553,1578,1692743693359677553,,2.9491223530479926
1692743693364864110,1579,1692743693364864110,,2.4145831965989055
1692743693369601726,1580,1692743693369601726,,2.3508968401002512
1692743693379385232,1581,1692743693379385232,,1.8923763114001702
1692743693380158662,1582,1692743693380158662,,2.4384841025991646
1692743693384848594,1583,1692743693384848594,,-0.8931672854109829
1692743693389866828,1584,1692743693389866828,,0.0020843931997163168
1692743693394603490,1585,1692743693394603490,,-0.7859101507030299
1692743693399554014,1586,1692743693399554014,,-2.043495438579542
1692743693404729604,1587,1692743693404729604,,-2.0051443500459016
1692743693409569978,1588,1692743693409569978,,-0.08437966456606372
1692743693414677619,1589,1692743693414677619,,-1.949275456052686
1692743693419571638,1590,1692743693419571638,,-1.5605875429860219
1692743693424860954,1591,1692743693424860954,,1.8023744973795912
1692743693429754257,1592,1692743693429754257,,-1.2690260243685287
1692743693436981916,1593,1692743693436981916,,-1.0094925501226975
1692743693446403026,1594,1692743693446403026,,1.9694365381336132
1692743693449742078,1595,1692743693449742078,,-0.793651775184042
1692743693455626487,1596,1692743693455626487,,-1.1376872222419863
1692743693462142229,1597,1692743693462142229,,-2.632321865428676
1692743693466035366,1598,1692743693466035366,,-2.9840165634902114
1692743693469810485,1599,1692743693469810485,,1.1601811174930763
1692743693474968671,1600,1692743693474968671,,2.512077723402398
1692743693479906797,1601,1692743693479906797,,-1.8619850649279548
1692743693484848022,1602,1692743693484848022,,-0.062296727188908996
1692743693489625930,1603,1692743693489625930,,2.932869779917941
1692743693494985818,1604,1692743693494985818,,-1.3022218102623628
1692743693499778985,1605,1692743693499778985,,2.489417627073168
1692743693504496097,1606,1692743693504496097,,2.825845574217861
1692743693509931802,1607,1692743693509931802,,-0.213769181039841
1692743693514891862,1608,1692743693514891862,,-2.956144442857733
1692743693519907236,1609,1692743693519907236,,-1.7844275984115772
1692743693524613142,1610,1692743693524613142,,-3.609460403002842
1692743693529679059,1611,1692743693529679059,,-1.63562217923889
1692743693535876512,1612,1692743693535876512,,-3.5409862372968766
1692743693539904594,1613,1692743693539904594,,-0.9763976315898102
1692743693544751167,1614,1692743693544751167,,-1.963506886370876
1692743693549514532,1615,1692743693549514532,,-2.1152849004264525
1692743693554709911,1616,1692743693554709911,,-1.8528439090351045
1692743693559831142,1617,1692743693559831142,,-2.6072357711223697
1692743693564813375,1618,1692743693564813375,,-1.51426959589699
1692743693569636821,1619,1692743693569636821,,-0.199967928006334
1692743693574794054,1620,1692743693574794054,,3.043525214163986
1692743693580181598,1621,1692743693580181598,,-0.9216313799299423
1692743693584850072,1622,1692743693584850072,,-2.9300006959661222
1692743693589633703,1623,1692743693589633703,,0.26048417655568823
1692743693594939708,1624,1692743693594939708,,-3.503795395932509
1692743693599786996,1625,1692743693599786996,,-1.3551639404816664
1692743693604535579,1626,1692743693604535579,,-2.1431843790994356
1692743693610120296,1627,1692743693610120296,,-0.3336974969142146
1692743693618730545,1628,1692743693618730545,,2.8067556381082577
1692743693620163440,1629,1692743693620163440,,-3.230004307897553
1692743693624684095,1630,1692743693624684095,,2.1319502429786334
1692743693629620552,1631,1692743693629620552,,2.586169170484996
1692743693634864091,1632,1692743693634864091,,-1.1779656597679828
1692743693639543294,1633,1692743693639543294,,-0.7884975885837848
1692743693645730972,1634,1692743693645730972,,-2.3792182245733415
1692743693649606466,1635,1692743693649606466,,0.7985611551183167
1692743693654696702,1636,1692743693654696702,,1.0664276389699205
1692743693660308837,1637,1692743693660308837,,2.874594393378792
1692743693664861202,1638,1692743693664861202,,2.4890861269386413
1692743693669603347,1639,1692743693669603347,,-2.8759437597477238
1692743693674867153,1640,1692743693674867153,,0.12405616490095017
1692743693679847240,1641,1692743693679847240,,-0.9142913180923644
1692743693684788703,1642,1692743693684788703,,2.658294318130115
1692743693689593791,1643,1692743693689593791,,1.4249354794827545
1692743693694986820,1644,1692743693694986820,,2.701177347012126
1692743693699769020,1645,1692743693699769020,,2.8591805578255327
1692743693704512357,1646,1692743693704512357,,-2.107531729053844
1692743693710025548,1647,1692743693710025548,,1.1007395513078118
1692743693715053081,1648,1692743693715053081,,-3.093505109576871
1692743693719860792,1649,1692743693719860792,,-3.490127261837089
1692743693724574089,1650,1692743693724574089,,-2.5413267226856577
1692743693730007648,1651,1692743693730007648,,-3.0745075792017817
1692743693734605073,1652,1692743693734605073,,-2.7500293734319454
1692743693739444017,1653,1692743693739444017,,-3.488372402253311
1692743693744830369,1654,1692743693744830369,,-0.6353309081164253
1692743693749613761,1655,1692743693749613761,,-2.131820001938287
1692743693754714965,1656,1692743693754714965,,0.3177254262044533
1692743693759804010,1657,1692743693759804010,,-3.2497454890652597
1692743693765255928,1658,1692743693765255928,,2.9799362504118365
1692743693769562959,1659,1692743693769562959,,1.5202568234837024
1692743693774717807,1660,1692743693774717807,,-3.0709802126883354
1692743693779818534,1661,1692743693779818534,,0.15168516583597302
1692743693784820556,1662,1692743693784820556,,-1.2046094113650314
1692743693789621353,1663,1692743693789621353,,-2.124895225572607
1692743693794856548,1664,1692743693794856548,,0.5841918407853006
1692743693799638986,1665,1692743693799638986,,0.044944859309139495
1692743693804730176,1666,1692743693804730176,,-2.028488107076637
1692743693809715270,1667,1692743693809715270,,-1.3554454476333606
1692743693815072059,1668,1692743693815072059,,-0.6526663165134208
1692743693819803714,1669,1692743693819803714,,1.0329572060694927
1692743693825294256,1670,1692743693825294256,,-1.7313854644604638
1692743693829758405,1671,1692743693829758405,,-0.9319993827986846
1692743693834969282,1672,1692743693834969282,,0.1607244169066293
1692743693839461326,1673,1692743693839461326,,-1.91637045784607
1692743693844819784,1674,1692743693844819784,,-1.6156325965641494
1692743693850326776,1675,1692743693850326776,,-4.0298284293281235
1692743693854680776,1676,1692743693854680776,,-1.9988925028542308
1692743693859697103,1677,1692743693859697103,,-3.467570150559884
1692743693865092515,1678,1692743693865092515,,-3.1501714831890224
1692743693869487524,1679,1692743693869487524,,-3.321217932542548
1692743693875206470,1680,1692743693875206470,,2.607105842156792
1692743693880131721,1681,1692743693880131721,,-3.6638266102489316
1692743693884740114,1682,1692743693884740114,,-2.788863959802792
1692743693889530658,1683,1692743693889530658,,-2.8451832306289
1692743693894904851,1684,1692743693894904851,,0.10840323252954231
1692743693899667501,1685,1692743693899667501,,-3.539545290716717
1692743693904831409,1686,1692743693904831409,,1.817811760187964
1692743693909809112,1687,1692743693909809112,,2.005399795134423
1692743693915065050,1688,1692743693915065050,,-3.164525637953551
1692743693919810771,1689,1692743693919810771,,-0.3621677255212479
1692743693924529314,1690,1692743693924529314,,1.7737272695521664
1692743693930044174,1691,1692743693930044174,,1.9652749780812977
1692743693934835195,1692,1692743693934835195,,-2.568041878271351
1692743693939529657,1693,1692743693939529657,,0.8930255885121339
1692743693944804430,1694,1692743693944804430,,-1.681837339942187
1692743693949630260,1695,1692743693949630260,,-2.8987335070296103
1692743693954662561,1696,1692743693954662561,,1.806360188255308
1692743693959656238,1697,1692743693959656238,,-0.726400232194564
1692743693964838504,1698,1692743693964838504,,-3.547991527599538
1692743693969530344,1699,1692743693969530344,,-0.6388997874922273
1692743693974688291,1700,1692743693974688291,,2.1334117389638756
1692743693979713439,1701,1692743693979713439,,-2.110808255270957
1692743693984762430,1702,1692743693984762430,,-2.9073109308381966
1692743693989525079,1703,1692743693989525079,,1.5252402932670428
1692743693994857311,1704,1692743693994857311,,1.9945175991511546
1692743693999628305,1705,1692743693999628305,,-0.7365860703962044
1692743694006505012,1706,1692743694006505012,,-2.2621913019741102
1692743694010132789,1707,1692743694010132789,,1.9738999778352762
1692743694014838695,1708,1692743694014838695,,1.8998906732321998
1692743694019583940,1709,1692743694019583940,,3.1567014623473613
1692743694024832487,1710,1692743694024832487,,-2.758371379419745
1692743694030786037,1711,1692743694030786037,,0.9811369290118179
1692743694034811973,1712,1692743694034811973,,-2.035434374356378
1692743694039577960,1713,1692743694039577960,,-2.9054941758178603
1692743694045270442,1714,1692743694045270442,,1.3038358447022356
1692743694049592733,1715,1692743694049592733,,1.0884911841515486
1692743694055165529,1716,1692743694055165529,,-1.5663972478991464
1692743694059651613,1717,1692743694059651613,,-2.088087620287136
1692743694064914464,1718,1692743694064914464,,0.8285635774897493
1692743694069833755,1719,1692743694069833755,,-2.598340512052545
1692743694074919223,1720,1692743694074919223,,-0.7746344446230644
1692743694079842090,1721,1692743694079842090,,1.6120445918561588
1692743694084879398,1722,1692743694084879398,,1.510901878789186
1692743694089702606,1723,1692743694089702606,,-1.5291408552940977
1692743694095056056,1724,1692743694095056056,,0.6744817659567728
1692743694099699735,1725,1692743694099699735,,2.2613277408563626
1692743694104461669,1726,1692743694104461669,,2.2319738115468786
1692743694109881877,1727,1692743694109881877,,-0.2229326399300149
1692743694114639520,1728,1692743694114639520,,2.360890962601152
1692743694119438171,1729,1692743694119438171,,0.8620491439728077
1692743694124925613,1730,1692743694124925613,,2.0207330559477494
1692743694129680871,1731,1692743694129680871,,2.8656819187739613
1692743694134689807,1732,1692743694134689807,,-2.1000281026024714
1692743694139476537,1733,1692743694139476537,,0.836814922109677
1692743694147843122,1734,1692743694147843122,,-0.24074978566367022
1692743694150395393,1735,1692743694150395393,,-3.0881368585212345
1692743694154615879,1736,1692743694154615879,,-3.601314849620945
1692743694159585475,1737,1692743694159585475,,-0.9800897493674139
1692743694164788007,1738,1692743694164788007,,-1.4798214386707897
1692743694173877000,1739,1692743694173877000,,-2.394098013336135
1692743694174679517,1740,1692743694174679517,,2.6974474918897764
1692743694179667949,1741,1692743694179667949,,-2.4114206012321877
1692743694184771776,1742,1692743694184771776,,1.0811528405257578
1692743694189544200,1743,1692743694189544200,,-0.8781631006688873
1692743694194930791,1744,1692743694194930791,,-2.834167774013368
1692743694199685335,1745,1692743694199685335,,-0.5547948718498938
1692743694204798221,1746,1692743694204798221,,-1.8755666525974783
1692743694211412906,1747,1692743694211412906,,-2.8841441999236195
1692743694214696168,1748,1692743694214696168,,2.852423653917895
1692743694219484567,1749,1692743694219484567,,2.6506864222103514
1692743694227884769,1750,1692743694227884769,,2.238789483133618
1692743694230072021,1751,1692743694230072021,,1.331144667478605
1692743694234596490,1752,1692743694234596490,,1.9379391955227137
1692743694239479303,1753,1692743694239479303,,-1.5274746034363216
1692743694244796752,1754,1692743694244796752,,-2.104030363731278
1692743694249714851,1755,1692743694249714851,,-1.9653171178728255
1692743694254670619,1756,1692743694254670619,,-0.6414611897720537
1692743694259976625,1757,1692743694259976625,,-1.7754625142365303
1692743694264734745,1758,1692743694264734745,,-2.017731120265405
1692743694269519329,1759,1692743694269519329,,-3.6350476032468295
1692743694274682521,1760,1692743694274682521,,-3.6486681847557483
1692743694279492139,1761,1692743694279492139,,-4.076522331572644
1692743694284624099,1762,1692743694284624099,,2.2279914940483305
1692743694289478540,1763,1692743694289478540,,1.866589346884477
1692743694294678926,1764,1692743694294678926,,2.6549887348938475
1692743694299597024,1765,1692743694299597024,,2.4514295086367124
1692743694304702520,1766,1692743694304702520,,-1.2559883877233977
1692743694309549570,1767,1692743694309549570,,1.4510761866118944
1692743694314836740,1768,1692743694314836740,,0.6718558778219021
1692743694319687604,1769,1692743694319687604,,-0.565221844098712
1692743694324833393,1770,1692743694324833393,,0.5122477906489848
1692743694329606056,1771,1692743694329606056,,-0.8963851214058227
1692743694334841251,1772,1692743694334841251,,-1.1425870418901125
1692743694339602947,1773,1692743694339602947,,-2.264495640571787
1692743694344712972,1774,1692743694344712972,,-3.9410753323854966
1692743694349497795,1775,1692743694349497795,,-2.3870026281436174
1692743694354648351,1776,1692743694354648351,,0.20131628053122785
1692743694359505653,1777,1692743694359505653,,-2.009120994477007
1692743694364672183,1778,1692743694364672183,,2.9968319027445665
1692743694369500398,1779,1692743694369500398,,3.1464517853554392
1692743694374680757,1780,1692743694374680757,,-1.6632480997365322
1692743694379567861,1781,1692743694379567861,,2.6073999185374417
1692743694384746551,1782,1692743694384746551,,2.791725541815535
1692743694389564752,1783,1692743694389564752,,-0.8599187512075925
1692743694394780874,1784,1692743694394780874,,-3.5980486198356934
1692743694399577617,1785,1692743694399577617,,1.6680685961996673
1692743694404561758,1786,1692743694404561758,,-2.2855070300906317
1692743694409549236,1787,1692743694409549236,,-3.1449168353204726
1692743694420414924,1788,1692743694420414924,,2.835345564177099
1692743694420996427,1789,1692743694420996427,,2.962695046381902
1692743694424684047,1790,1692743694424684047,,-3.658956615302573
1692743694429530143,1791,1692743694429530143,,-1.3431519634812936
1692743694434676408,1792,1692743694434676408,,2.005830366304709
1692743694439548969,1793,1692743694439548969,,-3.9718967892585963
1692743694444664478,1794,1692743694444664478,,-3.222713344325253
1692743694449480772,1795,1692743694449480772,,-3.0624314721626824
1692743694454620838,1796,1692743694454620838,,-3.005146960827366
1692743694459497928,1797,1692743694459497928,,-0.8394626441911806
1692743694464739799,1798,1692743694464739799,,-2.1428626976404614
1692743694469509363,1799,1692743694469509363,,-0.4012546108236288
1692743694474653005,1800,1692743694474653005,,-0.1871320553471172
1692743694479490518,1801,1692743694479490518,,-0.5754533200770853
1692743694484613418,1802,1692743694484613418,,0.971707513527015
1692743694489467144,1803,1692743694489467144,,-0.2642479171345773
1692743694499892234,1804,1692743694499892234,,-0.8828353331219709
1692743694500283956,1805,1692743694500283956,,1.1821601186528623
1692743694504472017,1806,1692743694504472017,,1.0273195259698111
1692743694509812593,1807,1692743694509812593,,0.6961211195566888
1692743694514515399,1808,1692743694514515399,,0.18582045914020018
1692743694519360065,1809,1692743694519360065,,1.3266224443112948
1692743694524734973,1810,1692743694524734973,,-2.736688718992816
1692743694529555559,1811,1692743694529555559,,-0.42711215897923616
1692743694534690618,1812,1692743694534690618,,-3.3398762550518963
1692743694539543151,1813,1692743694539543151,,-3.09213007719516
1692743694544737100,1814,1692743694544737100,,1.5835574177775262
1692743694549530982,1815,1692743694549530982,,0.07057108472907281
1692743694554670572,1816,1692743694554670572,,1.2085006364194193
1692743694559528112,1817,1692743694559528112,,1.9091937854517402
1692743694564734935,1818,1692743694564734935,,0.6538385130083881
1692743694569636344,1819,1692743694569636344,,0.9135822182396431
1692743694575800180,1820,1692743694575800180,,1.4294741867458098
1692743694579601526,1821,1692743694579601526,,-3.338024977631309
1692743694584790945,1822,1692743694584790945,,1.939110512254942
1692743694589603662,1823,1692743694589603662,,-4.2845541756482035
1692743694594735383,1824,1692743694594735383,,-0.8602410036250836
1692743694599621057,1825,1692743694599621057,,0.6526300172158388
1692743694604711532,1826,1692743694604711532,,-0.5202044602385962
1692743694609589576,1827,1692743694609589576,,-2.6160843171880037
1692743694614744663,1828,1692743694614744663,,-3.7091537328156514
1692743694620893478,1829,1692743694620893478,,1.723750743646157
1692743694624619483,1830,1692743694624619483,,-3.7258412253458397
1692743694629912614,1831,1692743694629912614,,-3.2202084667238733
1692743694634667158,1832,1692743694634667158,,0.40013449288560743
1692743694639548301,1833,1692743694639548301,,1.8471110507029245
1692743694644733905,1834,1692743694644733905,,-1.605354886047122
1692743694649562120,1835,1692743694649562120,,2.4503874125457736
1692743694654714345,1836,1692743694654714345,,-0.7878572548001088
1692743694659589529,1837,1692743694659589529,,-0.005892563659273264
1692743694664784908,1838,1692743694664784908,,0.34315313644175216
1692743694669587850,1839,1692743694669587850,,2.243602273290924
1692743694674745321,1840,1692743694674745321,,-1.7674491342530447
1692743694679548263,1841,1692743694679548263,,-3.5861437930464195
1692743694685047388,1842,1692743694685047388,,1.951181309620936
1692743694689530372,1843,1692743694689530372,,-1.5702829483048157
1692743694694723367,1844,1692743694694723367,,1.0041909322562521
1692743694699592590,1845,1692743694699592590,,-2.966113403910429
1692743694704787492,1846,1692743694704787492,,-0.8898564078452038
1692743694709614992,1847,1692743694709614992,,-3.300990028871041
1692743694714777946,1848,1692743694714777946,,1.4439462295630685
1692743694719564437,1849,1692743694719564437,,-1.196701785927119
1692743694724705457,1850,1692743694724705457,,-1.8519377771403418
1692743694729502677,1851,1692743694729502677,,-0.3762125703856647
1692743694734624147,1852,1692743694734624147,,0.3409727658703243
1692743694739482641,1853,1692743694739482641,,-0.7303258906636385
1692743694744637727,1854,1692743694744637727,,1.9574594108807775
1692743694749454498,1855,1692743694749454498,,-2.082180551077659
1692743694754606008,1856,1692743694754606008,,1.438028264002316
1692743694759475231,1857,1692743694759475231,,0.8206287958279308
1692743694764635562,1858,1692743694764635562,,1.4862081449217444
1692743694769466400,1859,1692743694769466400,,-2.625480177403731
1692743694774795055,1860,1692743694774795055,,1.99754421227731
1692743694779568672,1861,1692743694779568672,,0.4971150593740967
1692743694786658525,1862,1692743694786658525,,-2.5671458573903565
1692743694790009021,1863,1692743694790009021,,1.8949447856183026
1692743694794639110,1864,1692743694794639110,,1.4697709608854579
1692743694799690723,1865,1692743694799690723,,-1.1989397407097027
1692743694804793119,1866,1692743694804793119,,0.043339836604987525
1692743694809576034,1867,1692743694809576034,,-2.52993857880326
1692743694814669847,1868,1692743694814669847,,-1.2322172546068861
1692743694819477558,1869,1692743694819477558,,3.017386562641783
1692743694826081514,1870,1692743694826081514,,-0.7649184258999187
1692743694829570055,1871,1692743694829570055,,-0.3765871614972136
1692743694834659576,1872,1692743694834659576,,0.9596426879640934
1692743694839565753,1873,1692743694839565753,,-1.1403492985109835
1692743694844648122,1874,1692743694844648122,,-2.2647465800825617
1692743694849485397,1875,1692743694849485397,,1.1300297148338725
1692743694854613542,1876,1692743694854613542,,0.07235878331740153
1692743694859892368,1877,1692743694859892368,,-1.310450107495623
1692743694864644527,1878,1692743694864644527,,-1.0856393851938
1692743694869758367,1879,1692743694869758367,,-1.864408667943346
1692743694874609708,1880,1692743694874609708,,-3.0203548643353364
1692743694879977941,1881,1692743694879977941,,-0.9909653327834764
1692743694884795665,1882,1692743694884795665,,-2.3326281684393786
1692743694889801263,1883,1692743694889801263,,2.024256994315542
1692743694894910097,1884,1692743694894910097,,-1.0370656990619702
1692743694899592399,1885,1692743694899592399,,0.10280183614607363
1692743694904778957,1886,1692743694904778957,,1.0196070232784304
1692743694909517765,1887,1692743694909517765,,-0.46615791408783913
1692743694914836883,1888,1692743694914836883,,-0.2681476900242661
1692743694919637203,1889,1692743694919637203,,-0.4148824909265878
1692743694925447702,1890,1692743694925447702,,-0.8129676570691222
1692743694931901931,1891,1692743694931901931,,-1.6620917812531073
1692743694934961557,1892,1692743694934961557,,0.6134314985517522
1692743694939785242,1893,1692743694939785242,,1.4916905538010239
1692743694944485187,1894,1692743694944485187,,-0.454981987554012
1692743694949729204,1895,1692743694949729204,,-1.7379620357320813
1692743694954523801,1896,1692743694954523801,,-3.7581566141654497
1692743694959390401,1897,1692743694959390401,,1.2113376735610952
1692743694964623212,1898,1692743694964623212,,-1.237499270677965
1692743694969456195,1899,1692743694969456195,,0.6313433468731189
1692743694974639654,1900,1692743694974639654,,-2.974430138918473
1692743694979430198,1901,1692743694979430198,,-0.8373634799726082
1692743694984600543,1902,1692743694984600543,,-2.7238944875320272
1692743694991405010,1903,1692743694991405010,,-3.871952290160859
1692743694994571685,1904,1692743694994571685,,1.135681991933601
1692743694999436378,1905,1692743694999436378,,1.265831307303591
1692743695004596233,1906,1692743695004596233,,-1.6477047926216906
1692743695009481191,1907,1692743695009481191,,-1.6526504362514736
1692743695014606475,1908,1692743695014606475,,-0.5203752455466821
1692743695019862413,1909,1692743695019862413,,-2.4387290584219175
1692743695024693489,1910,1692743695024693489,,0.8777528495304994
1692743695030505895,1911,1692743695030505895,,-1.3600772868981292
1692743695034664392,1912,1692743695034664392,,-1.5186355759742862
1692743695039519309,1913,1692743695039519309,,-2.335114364795572
1692743695044647693,1914,1692743695044647693,,3.116128642910353
1692743695049474239,1915,1692743695049474239,,1.8001268571515077
1692743695054615497,1916,1692743695054615497,,1.9835316727291037
1692743695059454679,1917,1692743695059454679,,-2.99850355764111
1692743695064628124,1918,1692743695064628124,,-1.3131614771882218
1692743695069476127,1919,1692743695069476127,,2.9975481314671635
1692743695074619293,1920,1692743695074619293,,0.8307397687233626
1692743695079570293,1921,1692743695079570293,,-3.406799230611769
1692743695084741115,1922,1692743695084741115,,-1.3869268780113893
1692743695089483499,1923,1692743695089483499,,0.44263022883138436
1692743695094650983,1924,1692743695094650983,,2.494390443011569
1692743695099499464,1925,1692743695099499464,,0.07238770449043574
1692743695104665994,1926,1692743695104665994,,-1.404858148233262
1692743695109575748,1927,1692743695109575748,,2.382227468248911
1692743695114637613,1928,1692743695114637613,,0.8550585126239048
1692743695119473218,1929,1692743695119473218,,-2.348243779939358
1692743695124635457,1930,1692743695124635457,,0.8638472112639253
1692743695129481554,1931,1692743695129481554,,1.2596732556285142
1692743695134611606,1932,1692743695134611606,,2.2220495010419903
1692743695139459133,1933,1692743695139459133,,-1.1091512815142597
1692743695144614934,1934,1692743695144614934,,-0.8340863365790634
1692743695149448871,1935,1692743695149448871,,-2.231697197358254
1692743695154583692,1936,1692743695154583692,,-1.8230046625667762
1692743695159430742,1937,1692743695159430742,,-3.2498115471610296
1692743695164602041,1938,1692743695164602041,,-1.0294515992127309
1692743695169452190,1939,1692743695169452190,,0.33011969295478405
1692743695174609899,1940,1692743695174609899,,1.1516026398049055
1692743695179452180,1941,1692743695179452180,,-0.016840468560810784
1692743695184608697,1942,1692743695184608697,,-0.4759130700242089
1692743695189480781,1943,1692743695189480781,,-0.14091639561719127
1692743695196207523,1944,1692743695196207523,,-0.057602489501761944
1692743695199842929,1945,1692743695199842929,,0.9386850859495626
1692743695204538345,1946,1692743695204538345,,-1.0199154456986488
1692743695209381580,1947,1692743695209381580,,-1.8899071580947204
1692743695214559555,1948,1692743695214559555,,1.6846438687324703
1692743695219423770,1949,1692743695219423770,,2.0164559129064683
1692743695224648237,1950,1692743695224648237,,-3.0435918730410125
1692743695229511260,1951,1692743695229511260,,0.23699362274059865
1692743695235200405,1952,1692743695235200405,,-1.2516213564252352
1692743695239513874,1953,1692743695239513874,,-0.5241819191937243
1692743695244652032,1954,1692743695244652032,,1.4415933110316335
1692743695249515533,1955,1692743695249515533,,-3.7258447603706806
1692743695254641294,1956,1692743695254641294,,-2.2772378631575525
1692743695259493350,1957,1692743695259493350,,1.0877419729979705
1692743695264659643,1958,1692743695264659643,,-3.2557414443541512
1692743695269512891,1959,1692743695269512891,,-0.6705076110720363
1692743695274636983,1960,1692743695274636983,,1.9943449508078528
1692743695279587030,1961,1692743695279587030,,0.5356037138153331
1692743695285036325,1962,1692743695285036325,,0.3779271144901504
1692743695289748668,1963,1692743695289748668,,-0.2881252856197607
1692743695294792413,1964,1692743695294792413,,-1.7101454066992576
1692743695299638748,1965,1692743695299638748,,-2.4609083099639726
1692743695304814100,1966,1692743695304814100,,-2.4851742205554705
1692743695309616088,1967,1692743695309616088,,0.06865299691288307
1692743695314708232,1968,1692743695314708232,,-2.181804224777902
1692743695319942951,1969,1692743695319942951,,1.6263091067457234
1692743695324650764,1970,1692743695324650764,,2.5998901984732727
1692743695329477071,1971,1692743695329477071,,-0.7352533504845722
1692743695334618806,1972,1692743695334618806,,1.5064766922476185
1692743695339485645,1973,1692743695339485645,,-0.24517239770338417
1692743695344627380,1974,1692743695344627380,,-0.7198462333277291
1692743695349471569,1975,1692743695349471569,,2.1289419158125087
1692743695354613542,1976,1692743695354613542,,2.3912517924862
1692743695359463214,1977,1692743695359463214,,-1.2846924808891655
1692743695364620208,1978,1692743695364620208,,-3.1037838070856956
1692743695369464874,1979,1692743695369464874,,0.4607135237274438
1692743695374637126,1980,1692743695374637126,,1.784197398227973
1692743695379562139,1981,1692743695379562139,,-0.5410377484256141
1692743695387013196,1982,1692743695387013196,,-3.4755062961481618
1692743695389727115,1983,1692743695389727115,,-3.3876889344862553
1692743695394485235,1984,1692743695394485235,,-3.5298500768261
1692743695400800228,1985,1692743695400800228,,-0.17077766090859292
1692743695404397010,1986,1692743695404397010,,-0.699972653161967
1692743695409659147,1987,1692743695409659147,,-1.9833573405247207
1692743695414418697,1988,1692743695414418697,,-0.3566156193607348
1692743695419692277,1989,1692743695419692277,,0.9247173073955901
1692743695424642086,1990,1692743695424642086,,0.8541974762859228
1692743695429590463,1991,1692743695429590463,,-1.0517135248248168
1692743695434757471,1992,1692743695434757471,,-2.329635443626973
1692743695440149784,1993,1692743695440149784,,1.9347413834303717
1692743695444940090,1994,1692743695444940090,,2.3066554962558943
1692743695449624776,1995,1692743695449624776,,-1.4601193924749998
1692743695454415798,1996,1692743695454415798,,-2.3388310698228683
1692743695460320472,1997,1692743695460320472,,1.3148513576817429
1692743695464479446,1998,1692743695464479446,,0.2714239974139918
