%time,field.header.seq,field.header.stamp,field.header.frame_id,field.data.data
1692661686174306392,3543,1692661686174306392,,0.0
1692661686179623603,3544,1692661686179623603,,0.0
1692661686184384107,3545,1692661686184384107,,0.0
1692661686189529180,3546,1692661686189529180,,0.0
1692661686194423198,3547,1692661686194423198,,0.0
1692661686200694561,3548,1692661686200694561,,0.0
1692661686204330682,3549,1692661686204330682,,0.0
1692661686209449768,3550,1692661686209449768,,0.0
1692661686214351654,3551,1692661686214351654,,0.0
1692661686219606161,3552,1692661686219606161,,0.0
1692661686224327087,3553,1692661686224327087,,0.0
1692661686229556798,3554,1692661686229556798,,0.0
1692661686234303712,3555,1692661686234303712,,0.0
1692661686239512205,3556,1692661686239512205,,0.0
1692661686244577169,3557,1692661686244577169,,0.0
1692661686249498367,3558,1692661686249498367,,0.0
1692661686254506349,3559,1692661686254506349,,0.0
1692661686259548902,3560,1692661686259548902,,0.0
1692661686274513959,3563,1692661686274513959,,0.0
1692661686279842853,3564,1692661686279842853,,0.0
1692661686284709930,3565,1692661686284709930,,0.0
1692661686289890527,3566,1692661686289890527,,0.0
1692661686294739961,3567,1692661686294739961,,0.0
1692661686301121234,3568,1692661686301121234,,0.0
1692661686304666042,3569,1692661686304666042,,0.0
1692661686309604406,3570,1692661686309604406,,0.0
1692661686314465522,3571,1692661686314465522,,0.0
1692661686319690942,3572,1692661686319690942,,0.0
1692661686324985027,3573,1692661686324985027,,0.0
1692661686329708099,3574,1692661686329708099,,0.0
1692661686334539890,3575,1692661686334539890,,0.0
1692661686339740276,3576,1692661686339740276,,0.0
1692661686344525337,3577,1692661686344525337,,0.0
1692661686349766254,3578,1692661686349766254,,0.0
1692661686354543209,3579,1692661686354543209,,0.0
1692661686359726190,3580,1692661686359726190,,0.0
1692661686364548683,3581,1692661686364548683,,0.0
1692661686369725227,3582,1692661686369725227,,0.0
1692661686374515771,3583,1692661686374515771,,0.0
1692661686379779100,3584,1692661686379779100,,0.0
1692661686384543895,3585,1692661686384543895,,0.0
1692661686389738321,3586,1692661686389738321,,0.0
1692661686394557476,3587,1692661686394557476,,0.0
1692661686399860143,3588,1692661686399860143,,0.0
1692661686405717849,3589,1692661686405717849,,0.0
1692661686409921884,3590,1692661686409921884,,0.0
1692661686414735555,3591,1692661686414735555,,0.0
1692661686419470548,3592,1692661686419470548,,0.0
1692661686424807071,3593,1692661686424807071,,0.0
1692661686429635763,3594,1692661686429635763,,0.0
1692661686434532880,3595,1692661686434532880,,0.0
1692661686443616628,3596,1692661686443616628,,0.0
1692661686445541620,3597,1692661686445541620,,0.0
1692661686449913263,3598,1692661686449913263,,0.0
1692661686454545259,3599,1692661686454545259,,0.0
1692661686461362600,3600,1692661686461362600,,0.0
1692661686464554071,3601,1692661686464554071,,0.0
1692661686471914768,3602,1692661686471914768,,0.0
1692661686481243848,3603,1692661686481243848,,0.0
1692661686485114336,3604,1692661686485114336,,0.0
1692661686490143775,3605,1692661686490143775,,0.0
1692661686495344638,3606,1692661686495344638,,0.0
1692661686499854326,3607,1692661686499854326,,0.0
1692661686504450798,3608,1692661686504450798,,0.0
1692661686509403944,3609,1692661686509403944,,0.0
1692661686514322519,3610,1692661686514322519,,0.0
1692661686519503355,3611,1692661686519503355,,0.0
1692661686524315118,3612,1692661686524315118,,0.0
1692661686529563188,3613,1692661686529563188,,0.0
1692661686534373521,3614,1692661686534373521,,0.0
1692661686539566993,3615,1692661686539566993,,0.0
1692661686544369935,3616,1692661686544369935,,0.0
1692661686549524545,3617,1692661686549524545,,0.0
1692661686554352045,3618,1692661686554352045,,0.0
1692661686559474229,3619,1692661686559474229,,0.0
1692661686564409971,3620,1692661686564409971,,0.0
1692661686569465875,3621,1692661686569465875,,0.0
1692661686574318408,3622,1692661686574318408,,0.0
1692661686579540014,3623,1692661686579540014,,0.0
1692661686584324598,3624,1692661686584324598,,0.0
1692661686589506387,3625,1692661686589506387,,0.0
1692661686594398021,3626,1692661686594398021,,0.0
1692661686599612951,3627,1692661686599612951,,0.0
1692661686604456901,3628,1692661686604456901,,0.0
1692661686610332489,3629,1692661686610332489,,0.0
1692661686614508390,3630,1692661686614508390,,0.0
1692661686619943141,3631,1692661686619943141,,0.0
1692661686624541044,3632,1692661686624541044,,0.0
1692661686629597187,3633,1692661686629597187,,0.0
1692661686634465932,3634,1692661686634465932,,0.0
1692661686639650344,3635,1692661686639650344,,0.0
1692661686644461870,3636,1692661686644461870,,0.0
1692661686649824857,3637,1692661686649824857,,0.0
1692661686654661178,3638,1692661686654661178,,0.0
1692661686659893274,3639,1692661686659893274,,0.0
1692661686664751291,3640,1692661686664751291,,0.0
1692661686669702053,3641,1692661686669702053,,0.0
1692661686674746513,3642,1692661686674746513,,0.0
1692661686679836273,3643,1692661686679836273,,0.0
1692661686684636592,3644,1692661686684636592,,0.0
1692661686689963817,3645,1692661686689963817,,0.0
1692661686694869756,3646,1692661686694869756,,0.0
1692661686699797868,3647,1692661686699797868,,0.0
1692661686704485177,3648,1692661686704485177,,0.0
1692661686709447383,3649,1692661686709447383,,0.0
1692661686714915513,3650,1692661686714915513,,0.0
1692661686719760656,3651,1692661686719760656,,0.0
1692661686724577903,3652,1692661686724577903,,0.0
1692661686729788064,3653,1692661686729788064,,0.0
1692661686734372615,3654,1692661686734372615,,0.0
1692661686739639520,3655,1692661686739639520,,0.0
1692661686744424343,3656,1692661686744424343,,0.0
1692661686749550580,3657,1692661686749550580,,0.0
1692661686754365921,3658,1692661686754365921,,0.0
1692661686760188817,3659,1692661686760188817,,0.0
1692661686764815568,3660,1692661686764815568,,0.0
1692661686769868612,3661,1692661686769868612,,0.0
1692661686774392366,3662,1692661686774392366,,0.0
1692661686779903650,3663,1692661686779903650,,0.0
1692661686784711837,3664,1692661686784711837,,0.0
1692661686789813518,3665,1692661686789813518,,0.0
1692661686794746160,3666,1692661686794746160,,0.0
1692661686799956321,3667,1692661686799956321,,0.0
1692661686804674863,3668,1692661686804674863,,0.0
1692661686809902667,3669,1692661686809902667,,0.0
1692661686815604686,3670,1692661686815604686,,0.0
1692661686820231676,3671,1692661686820231676,,0.0
1692661686824829578,3672,1692661686824829578,,0.0
1692661686829593420,3673,1692661686829593420,,0.0
1692661686834893465,3674,1692661686834893465,,0.0
1692661686839821338,3675,1692661686839821338,,0.0
1692661686844678640,3676,1692661686844678640,,0.0
1692661686849541187,3677,1692661686849541187,,0.0
1692661686854440689,3678,1692661686854440689,,0.0
1692661686859621286,3679,1692661686859621286,,0.0
1692661686864451408,3680,1692661686864451408,,0.0
1692661686869502305,3681,1692661686869502305,,0.0
1692661686874358415,3682,1692661686874358415,,0.0
1692661686879637479,3683,1692661686879637479,,0.0
1692661686884404659,3684,1692661686884404659,,0.0
1692661686889515638,3685,1692661686889515638,,0.0
1692661686894405364,3686,1692661686894405364,,0.0
1692661686899616718,3687,1692661686899616718,,0.0
1692661686904457330,3688,1692661686904457330,,0.0
1692661686909566164,3689,1692661686909566164,,0.0
1692661686914466381,3690,1692661686914466381,,0.0
1692661686919741630,3691,1692661686919741630,,0.0
1692661686924481630,3692,1692661686924481630,,0.0
1692661686929755687,3693,1692661686929755687,,0.0
1692661686935448408,3694,1692661686935448408,,0.0
1692661686940202474,3695,1692661686940202474,,0.0
1692661686944918632,3696,1692661686944918632,,0.0
1692661686949738264,3697,1692661686949738264,,0.0
1692661686954625129,3698,1692661686954625129,,0.0
1692661686959685325,3699,1692661686959685325,,0.0
1692661686964629650,3700,1692661686964629650,,0.0
1692661686969810009,3701,1692661686969810009,,0.0
1692661686974576473,3702,1692661686974576473,,0.0
1692661686979580402,3703,1692661686979580402,,0.0
1692661686984415769,3704,1692661686984415769,,0.0
1692661686989514589,3705,1692661686989514589,,0.0
1692661686994421958,3706,1692661686994421958,,0.0
1692661686999592304,3707,1692661686999592304,,0.0
1692661687004410028,3708,1692661687004410028,,0.0
1692661687009561061,3709,1692661687009561061,,0.0
1692661687014431476,3710,1692661687014431476,,0.0
1692661687019944429,3711,1692661687019944429,,0.0
1692661687024409770,3712,1692661687024409770,,0.0
1692661687029613018,3713,1692661687029613018,,0.0
1692661687034334659,3714,1692661687034334659,,0.0
1692661687039534330,3715,1692661687039534330,,0.0
1692661687044362783,3716,1692661687044362783,,0.0
1692661687049507617,3717,1692661687049507617,,0.0
1692661687054343700,3718,1692661687054343700,,0.0
1692661687059529066,3719,1692661687059529066,,0.0
1692661687064460277,3720,1692661687064460277,,0.0
1692661687069432258,3721,1692661687069432258,,0.0
1692661687074374198,3722,1692661687074374198,,0.0
1692661687079504966,3723,1692661687079504966,,0.0
1692661687084508657,3724,1692661687084508657,,0.0
1692661687089648485,3725,1692661687089648485,,0.0
1692661687094433784,3726,1692661687094433784,,0.0
1692661687099745512,3727,1692661687099745512,,0.0
1692661687104519605,3728,1692661687104519605,,0.0
1692661687109315872,3729,1692661687109315872,,0.0
1692661687114707708,3730,1692661687114707708,,0.0
1692661687119354724,3731,1692661687119354724,,0.0
1692661687124257326,3732,1692661687124257326,,0.0
1692661687129517316,3733,1692661687129517316,,0.0
1692661687134362697,3734,1692661687134362697,,0.0
1692661687141399621,3735,1692661687141399621,,0.0
1692661687144807577,3736,1692661687144807577,,0.0
1692661687149616956,3737,1692661687149616956,,0.0
1692661687154410600,3738,1692661687154410600,,0.0
1692661687159588336,3739,1692661687159588336,,0.0
1692661687164472579,3740,1692661687164472579,,0.0
1692661687169511079,3741,1692661687169511079,,0.0
1692661687174396514,3742,1692661687174396514,,0.0
1692661687179614543,3743,1692661687179614543,,0.0
1692661687184364795,3744,1692661687184364795,,0.0
1692661687189597606,3745,1692661687189597606,,0.0
1692661687194354534,3746,1692661687194354534,,0.0
1692661687199672937,3747,1692661687199672937,,0.0
1692661687204478740,3748,1692661687204478740,,0.0
1692661687209568977,3749,1692661687209568977,,0.0
1692661687214439392,3750,1692661687214439392,,0.0
1692661687219624996,3751,1692661687219624996,,0.0
1692661687224657058,3752,1692661687224657058,,0.0
1692661687229575634,3753,1692661687229575634,,0.0
1692661687234412431,3754,1692661687234412431,,0.0
1692661687239566564,3755,1692661687239566564,,0.0
1692661687244374513,3756,1692661687244374513,,0.0
1692661687249550819,3757,1692661687249550819,,0.0
1692661687254369020,3758,1692661687254369020,,0.0
1692661687259633064,3759,1692661687259633064,,0.0
1692661687265040636,3760,1692661687265040636,,0.0
1692661687270051479,3761,1692661687270051479,,0.0
1692661687275045156,3762,1692661687275045156,,0.0
1692661687280166625,3763,1692661687280166625,,0.0
1692661687284806728,3764,1692661687284806728,,0.0
1692661687289752483,3765,1692661687289752483,,0.0
1692661687294855356,3766,1692661687294855356,,0.0
1692661687300092458,3767,1692661687300092458,,0.0
1692661687304709434,3768,1692661687304709434,,0.0
1692661687309545993,3769,1692661687309545993,,0.0
1692661687315129041,3770,1692661687315129041,,0.0
1692661687319838285,3771,1692661687319838285,,0.0
1692661687324552774,3772,1692661687324552774,,0.0
1692661687329574108,3773,1692661687329574108,,0.0
1692661687334456682,3774,1692661687334456682,,0.0
1692661687339638710,3775,1692661687339638710,,0.0
1692661687346137762,3776,1692661687346137762,,0.0
1692661687349483966,3777,1692661687349483966,,0.0
1692661687354340791,3778,1692661687354340791,,0.0
1692661687359508514,3779,1692661687359508514,,0.0
1692661687364422798,3780,1692661687364422798,,0.0
1692661687369582414,3781,1692661687369582414,,0.0
1692661687374677181,3782,1692661687374677181,,0.0
1692661687379603862,3783,1692661687379603862,,0.0
1692661687384388446,3784,1692661687384388446,,0.0
1692661687389679908,3785,1692661687389679908,,0.0
1692661687394474506,3786,1692661687394474506,,0.0
1692661687399802684,3787,1692661687399802684,,0.0
1692661687404544591,3788,1692661687404544591,,0.0
1692661687409286260,3789,1692661687409286260,,0.0
1692661687414752006,3790,1692661687414752006,,0.0
1692661687419404506,3791,1692661687419404506,,0.0
1692661687424302101,3792,1692661687424302101,,0.0
1692661687429632425,3793,1692661687429632425,,0.0
1692661687434253931,3794,1692661687434253931,,0.0
1692661687439507961,3795,1692661687439507961,,0.0
1692661687444369316,3796,1692661687444369316,,0.0
1692661687449481248,3797,1692661687449481248,,0.0
1692661687454311609,3798,1692661687454311609,,0.0
1692661687459511518,3799,1692661687459511518,,0.0
1692661687464447021,3800,1692661687464447021,,0.0
1692661687469579935,3801,1692661687469579935,,0.0
1692661687474568605,3802,1692661687474568605,,0.0
1692661687479892015,3803,1692661687479892015,,0.0
1692661687484364986,3804,1692661687484364986,,0.0
1692661687489525318,3805,1692661687489525318,,0.0
1692661687494417667,3806,1692661687494417667,,0.0
1692661687499644994,3807,1692661687499644994,,0.0
1692661687504415035,3808,1692661687504415035,,0.0
1692661687509556293,3809,1692661687509556293,,0.0
1692661687514542102,3810,1692661687514542102,,0.0
1692661687519655704,3811,1692661687519655704,,0.0
1692661687524392127,3812,1692661687524392127,,0.0
1692661687530049085,3813,1692661687530049085,,0.0
1692661687534412622,3814,1692661687534412622,,0.0
1692661687539818763,3815,1692661687539818763,,0.0
1692661687544548273,3816,1692661687544548273,,0.0
1692661687551092147,3817,1692661687551092147,,0.0
1692661687554845809,3818,1692661687554845809,,0.0
1692661687559983968,3819,1692661687559983968,,0.0
1692661687564757823,3820,1692661687564757823,,0.0
1692661687569903135,3821,1692661687569903135,,0.0
1692661687574679851,3822,1692661687574679851,,0.0
1692661687579771995,3823,1692661687579771995,,0.0
1692661687584737300,3824,1692661687584737300,,0.0
1692661687589926481,3825,1692661687589926481,,0.0
1692661687594792366,3826,1692661687594792366,,0.0
1692661687600040674,3827,1692661687600040674,,0.0
1692661687604716539,3828,1692661687604716539,,0.0
1692661687609781742,3829,1692661687609781742,,0.0
1692661687614715099,3830,1692661687614715099,,0.0
1692661687619500875,3831,1692661687619500875,,0.0
1692661687624371528,3832,1692661687624371528,,0.0
1692661687629889488,3833,1692661687629889488,,0.0
1692661687634851217,3834,1692661687634851217,,0.0
1692661687639770507,3835,1692661687639770507,,0.0
1692661687644711732,3836,1692661687644711732,,0.0
1692661687649755716,3837,1692661687649755716,,0.0
1692661687654540777,3838,1692661687654540777,,0.0
1692661687660105228,3839,1692661687660105228,,0.0
1692661687664788722,3840,1692661687664788722,,0.0
1692661687669950008,3841,1692661687669950008,,0.0
1692661687674745798,3842,1692661687674745798,,0.0
1692661687680050134,3843,1692661687680050134,,0.0
1692661687684899091,3844,1692661687684899091,,0.0
1692661687690104246,3845,1692661687690104246,,0.0
1692661687694523572,3846,1692661687694523572,,0.0
1692661687699757099,3847,1692661687699757099,,0.0
1692661687704490184,3848,1692661687704490184,,0.0
1692661687709726572,3849,1692661687709726572,,0.0
1692661687715349197,3850,1692661687715349197,,0.0
1692661687719787836,3851,1692661687719787836,,0.0
1692661687724600791,3852,1692661687724600791,,0.0
1692661687729689359,3853,1692661687729689359,,0.0
1692661687734446763,3854,1692661687734446763,,0.0
1692661687739675760,3855,1692661687739675760,,0.0
1692661687744451999,3856,1692661687744451999,,0.0
1692661687749614477,3857,1692661687749614477,,0.0
1692661687755690813,3858,1692661687755690813,,0.0
1692661687759569883,3859,1692661687759569883,,0.0
1692661687764626979,3860,1692661687764626979,,0.0
1692661687769564628,3861,1692661687769564628,,0.0
1692661687774447917,3862,1692661687774447917,,0.0
1692661687779653310,3863,1692661687779653310,,0.0
1692661687784392356,3864,1692661687784392356,,0.0
1692661687789607524,3865,1692661687789607524,,0.0
1692661687794351816,3866,1692661687794351816,,0.0
1692661687799645423,3867,1692661687799645423,,0.0
1692661687804392814,3868,1692661687804392814,,0.0
1692661687821512937,3869,1692661687821512937,,0.0
1692661687826695919,3870,1692661687826695919,,0.0
1692661687830557584,3871,1692661687830557584,,0.0
1692661687834682226,3872,1692661687834682226,,0.0
1692661687839858531,3873,1692661687839858531,,0.0
1692661687845761299,3874,1692661687845761299,,0.0
1692661687849871397,3875,1692661687849871397,,0.0
1692661687854699850,3876,1692661687854699850,,0.0
1692661687859942436,3877,1692661687859942436,,0.0
1692661687864655733,3878,1692661687864655733,,0.0
1692661687869959831,3879,1692661687869959831,,0.0
1692661687874638080,3880,1692661687874638080,,0.0
1692661687879865407,3881,1692661687879865407,,0.0
1692661687884740591,3882,1692661687884740591,,0.0
1692661687891131639,3883,1692661687891131639,,0.0
1692661687894785165,3884,1692661687894785165,,0.0
1692661687899942398,3885,1692661687899942398,,0.0
1692661687907839059,3886,1692661687907839059,,0.0
1692661687913165569,3887,1692661687913165569,,0.0
1692661687919112205,3888,1692661687919112205,,0.0
1692661687923108339,3889,1692661687923108339,,0.0
1692661687929169893,3890,1692661687929169893,,0.0
1692661687939211606,3891,1692661687939211606,,0.0
1692661687947091102,3892,1692661687947091102,,0.0
1692661687954854726,3893,1692661687954854726,,0.0
1692661687958820104,3894,1692661687958820104,,0.0
1692661687967584609,3895,1692661687967584609,,0.0
1692661687972322225,3896,1692661687972322225,,0.0
1692661687975059986,3897,1692661687975059986,,0.0
1692661687980030298,3898,1692661687980030298,,0.0
1692661687986445903,3899,1692661687986445903,,0.0
1692661687991839647,3900,1692661687991839647,,0.0
1692661687996618986,3901,1692661687996618986,,0.0
1692661688002778530,3902,1692661688002778530,,0.0
1692661688007067680,3903,1692661688007067680,,0.0
1692661688009713649,3904,1692661688009713649,,0.0
1692661688014570713,3905,1692661688014570713,,0.0
1692661688019570350,3906,1692661688019570350,,0.0
1692661688025580644,3907,1692661688025580644,,0.0
1692661688029737949,3908,1692661688029737949,,0.0
1692661688035974025,3909,1692661688035974025,,0.0
1692661688047235727,3910,1692661688047235727,,0.0
1692661688054638147,3911,1692661688054638147,,0.0
1692661688058093786,3912,1692661688058093786,,0.0
1692661688062167882,3913,1692661688062167882,,0.0
1692661688065301418,3914,1692661688065301418,,0.0
1692661688070039987,3915,1692661688070039987,,0.0
1692661688074470996,3916,1692661688074470996,,0.0
1692661688079535007,3917,1692661688079535007,,0.0
1692661688084373950,3918,1692661688084373950,,0.0
1692661688089457511,3919,1692661688089457511,,0.0
1692661688094384670,3920,1692661688094384670,,0.0
1692661688099600076,3921,1692661688099600076,,0.0
1692661688104329586,3922,1692661688104329586,,0.0
1692661688109631061,3923,1692661688109631061,,0.0
1692661688114392757,3924,1692661688114392757,,0.0
1692661688119571447,3925,1692661688119571447,,0.0
1692661688124410629,3926,1692661688124410629,,0.0
1692661688129467964,3927,1692661688129467964,,0.0
1692661688134463787,3928,1692661688134463787,,0.0
1692661688139584302,3929,1692661688139584302,,0.0
1692661688144459247,3930,1692661688144459247,,0.0
1692661688149660587,3931,1692661688149660587,,0.0
1692661688154403686,3932,1692661688154403686,,0.0
1692661688159649372,3933,1692661688159649372,,0.0
1692661688165560483,3934,1692661688165560483,,0.0
1692661688169642686,3935,1692661688169642686,,0.0
1692661688174608230,3936,1692661688174608230,,0.0
1692661688179905176,3937,1692661688179905176,,0.0
1692661688184472084,3938,1692661688184472084,,0.0
1692661688189664602,3939,1692661688189664602,,0.0
1692661688194424390,3940,1692661688194424390,,0.0
1692661688199777126,3941,1692661688199777126,,0.0
1692661688204418897,3942,1692661688204418897,,0.0
